sinacsa
Scan
1.1
Nomeso1.dsp
nm
700
800
0.5
201
A
0.205848458661563
0.504170895061313
0
Lambda 9/COMPUTER_1

2/14/2017 11:25:05 AM
2/14/2017 11:25:23 AM
2/14/2017 11:23:30 AM
0
Version 1, 2/14/2017 11:25:23 AM, Lambda 9/COMPUTER_1: |Created; Method: test.msc (Version 2 / 2/14/2017 11:21:04 AM)||
test.msc (Version 2 / 2/14/2017 11:21:04 AM)
1
0
0
sec
0
0

Lambda 19 UV/Vis/NIR
Rev. 9B/9C
1822
2
0
1
1
0.2
319.2
0

1
0
0
 Lambda-SPX/P Scan Version 1.8  (002)

0




||












480
1
0
0
0
1
3
1
0
1.59999999887077E-02
0
0
0
0
860.8
0
0
0
0
0
1
1
1
0
0
0
0
0
0
0
0
0
0
0
0
0
0
0
0
0
0
3
0
5
100
0
0
0
0
0
0
0
0
0
0
0
0
0
0
0
#SPECIFIC1
0
0
0.01

#SPECIFIC2

#SPECIFIC3

#DATA
0.504170895061313
0.502988874197321
0.501478614590889
0.502539983396213
0.501353678072359
0.500167107881779
0.500233089251687
0.497972296352891
0.497758125317797
0.498373708482923
0.497240876559572
0.497356249265884
0.496524518225906
0.494305078440155
0.494177911546247
0.49309229476273
0.492066119825526
0.492621836540552
0.491414205953659
0.490253092785129
0.488985300413142
0.488217873143419
0.487503225833741
0.486693721484449
0.485546787485683
0.484258435792075
0.483597700801923
0.483568405215646
0.482310469293051
0.48118380373161
0.481042721385842
0.481808595141864
0.479132416259676
0.478508321694296
0.477408689599369
0.475708189051479
0.475504040885602
0.474456201520503
0.473770886602406
0.473696216896177
0.471926139194199
0.469913992661741
0.469690483630642
0.467968986343732
0.467806300575688
0.467876023251063
0.466673691844817
0.466371854624898
0.466081150180428
0.463775614776326
0.462935634313066
0.462482493010645
0.460584242275293
0.460922295527386
0.459129893470464
0.459645994699072
0.459278753495618
0.458160239771049
0.457533539486191
0.455904005035404
0.454749697436998
0.453908239507669
0.453872552513569
0.453019298365942
0.453716790821728
0.45171087545885
0.450112162342985
0.450202862774713
0.448970190234131
0.447760682344515
0.447003845534732
0.445714321204031
0.446562963569603
0.446149062243938
0.443720367104941
0.444262490081158
0.444584874482941
0.442848242088306
0.441566348533648
0.441149408936151
0.440567811327456
0.440623330059682
0.439126379824956
0.436813996442773
0.437787484510978
0.435688533928754
0.43516739606737
0.434853819566077
0.432506934373819
0.433232490768407
0.4314170751676
0.429684958060977
0.430034370358656
0.427245570059113
0.426714509729355
0.42492835453634
0.4212460848532
0.421317706150709
0.419580425178404
0.416027834873916
0.41536380877686
0.411742878861078
0.410320769444131
0.409593929219645
0.405977611216995
0.403659140984142
0.402350522141782
0.398057563178941
0.395995890925999
0.392870359606688
0.388144654651061
0.385497536034994
0.380700928151027
0.377203693689484
0.374299104214424
0.369875955723672
0.366602548813596
0.36290408144966
0.356894500429099
0.35232507322559
0.348142727173997
0.342165996171313
0.339128268125603
0.334772774690002
0.328690645658209
0.324128427337704
0.318756503438791
0.312907854688778
0.309488481430978
0.303870204172989
0.298673318885138
0.293724252234416
0.288303579048653
0.283276022802119
0.279079595850342
0.273326483950749
0.269016947985823
0.264398274826155
0.260375990042183
0.257708868091629
0.25259077349409
0.249141358126155
0.245651842658212
0.241132186097063
0.238949131844676
0.235793930571474
0.231861292090559
0.23037635701213
0.228307790199031
0.224635727838797
0.22333671793213
0.219778306384062
0.217627338613974
0.217449673661402
0.215743917231089
0.213840273842089
0.213829420536001
0.212500245470691
0.211640434246217
0.210499812556022
0.20780061567374
0.208405456542093
0.208430645105123
0.208339803493076
0.207484406202812
0.207201394303548
0.207087614421276
0.207860837135951
0.205848458661563
0.207715189994325
0.207991489950438
0.206706309889712
0.207515670327294
0.207603456091993
0.207497638172935
0.209704850336739
0.209785043044755
0.209916737510977
0.210822671550661
0.209412096410405
0.211142976999214
0.21250731663826
0.211329692440255
0.212676471790343
0.213602801375624
0.213060004469475
0.214266897784935
0.214755702009411
0.213920406333283
0.216194216662089
0.216827102075788
0.216673747718359
0.218198875057133
0.216814680244431
0.21783433482036
0.219516990745147
0.216927666884559
0.219459677189392
0.21925834831648
0.21803914928831
0.219838256819179
