sinacsa
Scan
1.1
A07061709.dsp
nm
200
800
1
601
A
0.168304116116474
1.61905562230385
0
CATHERINE

07/06/2017 11:01:54
07/06/2017 11:03:00
07/06/2017 09:57:57
0
Version 1, 07/06/2017 11:03:00, CATHERINE: |Created; Method: test.msc (Version 2 / 07/06/2017 11:01:35)||
test.msc (Version 2 / 07/06/2017 11:01:35)
1
0
0
sec
0
0

Lambda 19 UV/Vis/NIR
Rev. 9B/9C
1822
4
0
1
1
0.2
319.2
0

1
0
0
 Lambda-SPX/P Scan Version 1.8  (002)

0




||












960
1
0
0
0
1
3
1
0
1.60000000005311E-02
0
0
0
0
860.8
0
0
0
0
0
1
1
1
0
0
0
0
0
0
0
0
0
0
0
0
0
0
0
0
0
0
3
0
5
100
0
0
0
0
0
0
0
0
0
0
0
0
0
0
0
#SPECIFIC1
0
0
0.01

#SPECIFIC2

#SPECIFIC3

#DATA
0.625993416774973
0.64735628465057
0.664611018809245
0.681184928048951
0.684114100029962
0.683756948191931
0.695101020867565
0.697533673919505
0.699910676516988
0.702876698972233
0.708392533190628
0.711488381121022
0.707269205242587
0.711908031518263
0.71438695751964
0.713527512700829
0.716306004270432
0.717725282793467
0.719107867794343
0.719698511065895
0.719651762693665
0.723796140762085
0.724187291835774
0.723123058546842
0.726275076291575
0.725638685321483
0.726370353731245
0.726784032680718
0.726147982420721
0.727641698887244
0.728591357217355
0.727497305758374
0.72826072319944
0.728445898307801
0.727274117413162
0.728074342385025
0.729514801303662
0.729033429043961
0.730006526700988
0.72968017231587
0.729702789883797
0.73199796695942
0.730676931335858
0.730079769898145
0.73158196751994
0.730767864291335
0.731360361311138
0.731665395233313
0.730162165920828
0.731339553366881
0.732024002954907
0.731686122767506
0.73439544223536
0.731530345635506
0.731348763775927
0.733380278400094
0.733551330962397
0.733959896168947
0.735347095773819
0.734503821364261
0.736884132675956
0.739846852366523
0.739781749287446
0.742915527234239
0.743291564986929
0.743941668699661
0.745649411519906
0.745286105027758
0.748226723075535
0.749946039389932
0.749827148027616
0.752340432663501
0.751581194471985
0.75171406817903
0.753137781985821
0.753205162823587
0.751782747522268
0.752365499805724
0.75089264737866
0.749645346207952
0.749644346249691
0.746167941205117
0.746083442092627
0.746315298672402
0.744222240268244
0.743733529633234
0.742604687422556
0.742156345129396
0.743130198373337
0.741872028902807
0.740889894355323
0.741669499392628
0.739271515028241
0.738505781927359
0.739252950836605
0.73735039801179
0.738017660699916
0.739876985467802
0.740449777712591
0.74294794521048
0.74223839002481
0.742487651475013
0.74520818998704
0.745150562779963
0.744990407640923
0.74638261603984
0.746780677108126
0.748479709236794
0.749876325568975
0.749006359321326
0.750808639557683
0.750725422825747
0.750358939716731
0.752241424430087
0.751812318452504
0.752920968693195
0.753233529595068
0.752522148332481
0.752470955162144
1.61843112652523
1.6182728608434
1.61807435789623
1.61905562230385
1.61607908032415
1.61358581352933
1.61119507640199
1.60835196382142
1.6106332488401
1.60030909753721
1.59921339951027
1.59303590218239
1.58582569849166
1.58393514263501
1.58328699714631
1.57866521381229
1.57378585548086
1.56902735666175
1.56612529413278
1.56234700488373
1.55843560821759
1.55485468127992
1.55432707104897
1.55124663827042
1.54942130218024
1.54829162985147
1.5458043786516
1.54415486996445
1.54389180751727
1.54004112804355
1.53811684247915
1.53650237705833
1.53480283974584
1.53555602011484
1.5348647116621
1.53570274831939
1.53506638248269
1.53123417270773
1.52952559014268
1.52812739757974
1.52533653085412
1.5253877867142
1.52520756580668
1.52500632904408
1.52597898188388
1.52515737543249
1.52600610744612
1.52952193544252
1.53116671331694
1.53536790924834
1.54032813495538
1.54338138854347
1.54880692266817
1.55444141980176
1.56015840682703
1.56239079610721
1.56104341537526
1.55839026358989
1.54515003010231
1.53151601064694
1.53146440437335
1.53134994156178
1.53702483995094
1.53752785121193
1.53459549802094
1.53554036191858
1.53433915937647
1.53152491538267
1.52801289138772
1.52237542984649
1.52226090911101
1.52486080164634
1.52654264140667
1.53021253395015
1.52778830871701
1.52305542088368
1.52488504312505
1.52915255652183
1.52672105248068
1.52808110785086
1.52226203277892
1.5232045010384
1.52772854552257
1.5283427857798
1.52686637687359
1.52777562521771
1.5265213270556
1.52733724324924
1.53091566453066
1.52885176209196
1.52789080383134
1.5250236572854
1.52394346078213
1.52537655885517
1.5252692917752
1.52850508394112
1.52691180547369
1.52268527351063
1.52330565228982
1.52030180720465
1.51980433121086
1.51929082913912
1.5154691003458
1.51584591416064
1.51317965378484
1.50847799076446
1.50823843662501
1.5074567098842
1.50359320844984
1.50796512163369
1.50227690254233
1.49657671958498
1.49594981277104
1.49435763794447
1.493293141729
1.4932315538216
1.49349661210666
1.49256023566588
1.4928154909215
1.48877273655897
1.48687364509994
1.48748390548712
1.4881196600513
1.48554440079745
1.48551171156208
1.47832966700494
1.47522109680504
1.47418436849826
1.47732943589835
1.47655222696032
1.47349183067607
1.47444939834261
1.47975809656505
1.47516173946315
1.47841960346497
1.47970184648312
1.47779011826989
1.48151288077452
1.48339635690046
1.48535264262526
1.48629125605763
1.48811775012797
1.49154505588513
1.49443432609154
1.49635847619422
1.49847501745057
1.49798168442383
1.49785134218749
1.49862093822607
1.49929431063539
1.50003108516798
1.5002167319072
1.49695740096035
1.49543014302168
1.49391606001562
1.49047272220716
1.48833015827427
1.48922239667556
1.48687279965273
1.48513909249026
1.48315730663633
1.48213580561897
1.48187834483579
1.48143156356845
1.48280687010744
1.48099112837669
1.48040873751253
1.480044525831
1.48008202787399
1.48045288322561
1.47991856270765
1.48179749571125
1.48073000028241
1.47912115250464
1.47922585914415
1.47906634199938
1.48107203379825
1.48300490744759
1.47993075487117
1.47930178873578
1.47646942433504
1.47664544984865
1.47495175777019
1.4744196588442
1.47453682498793
1.47019659697007
1.46798506121105
1.4648898381053
1.45903630415518
1.45612683565478
1.4521840347111
1.44826567084206
1.4472605584386
1.44041252306847
1.43711863923988
1.43417372425879
1.43006426579856
1.42504810786647
1.42130146735463
1.41722442697482
1.41489593380392
1.4131540217386
1.40881116837868
1.40440493130501
1.3990389854723
1.39568868819308
1.39176932892941
1.38792950271183
1.38398813737378
1.37895584116694
1.37359842430497
1.36841117806572
1.36548180678078
1.35850088236106
1.3519839575543
1.34614023885673
1.33970510347354
1.33447717987849
1.32841391037348
1.32220979150283
1.3142813014889
1.30703659573147
1.30053584029701
1.29432707275319
1.28879674652121
1.27963638233758
1.27315247413466
1.26631459922112
1.25890830099074
1.25235035149602
1.24488816155539
1.237875516363
1.23132123197298
1.22347525597771
1.21569980299618
1.20843156072636
1.20196183709003
1.1948723912617
1.18773271713989
1.18099542149909
1.17336232852836
1.16839773278733
1.15995698369231
1.14720629006246
1.13505182569521
1.12898145107355
1.12277722677633
1.11657445609563
1.11041072126929
1.10464795534203
1.09855469916182
1.09283720353677
1.08681524768882
1.07995905185512
1.07491470697974
1.06886946389415
1.06268598823457
1.05688740066153
1.05063465836476
1.04459505048716
1.03872066693014
1.03297773768056
1.02681208192169
1.02062269718647
1.01455002187638
1.0091759485138
1.00228464038174
0.996376763914482
0.990975842695788
0.984465768637924
0.978518847942498
0.972970459203456
0.966706227022233
0.960102714931271
0.95425762848844
0.948727981644543
0.942500186887638
0.936323237654993
0.930858804712785
0.925362921596454
0.919554325646097
0.914620401285419
0.908813879572562
0.903050099289714
0.897097918637352
0.89105970811867
0.885493344009449
0.880375586941664
0.874925672187464
0.869618279916633
0.864606883853514
0.859301766445237
0.854362165839417
0.848995850673512
0.843986682595188
0.839548293144283
0.835073843193598
0.829160470723006
0.824234689039811
0.820228815982339
0.815715822532108
0.810158028061458
0.805806437341769
0.801618581495563
0.797372092223751
0.792208337770813
0.788335515231746
0.784461096219657
0.779896644746957
0.775278100907351
0.771062313822236
0.767271104767545
0.763108408829058
0.759571061367554
0.754437832569849
0.750798771073087
0.747123975531445
0.74366569031328
0.74035311993402
0.736511541017453
0.732674621138544
0.728983671763452
0.724629563486264
0.721079835834887
0.717535184808876
0.713947242391447
0.710470381659458
0.707188832629855
0.703993332847458
0.700125724883828
0.69637437749936
0.693573876391348
0.689925716586866
0.686546523341282
0.68393000132205
0.681791160231243
0.678388231991449
0.675286876674219
0.672026560868323
0.668766766852668
0.666052374361331
0.663913610628016
0.661512680213605
0.658806419782173
0.655508885863156
0.652827051908663
0.650876059910933
0.648349438837368
0.645646955530755
0.644086342980555
0.641237104284736
0.63858613931398
0.636535155044895
0.633646547428607
0.632386229799793
0.630299516313632
0.628358457458834
0.627116952547572
0.624786039702947
0.622294463119315
0.620662325089372
0.618558044753787
0.617118303871947
0.615583953774117
0.613235089161
0.611996924155007
0.610347113415813
0.607957435519442
0.60633744167216
0.604887562724958
0.603406426754456
0.600488785343735
0.598264709377403
0.596650468654028
0.595160463041527
0.593317334967971
0.591912029613874
0.590912570403877
0.589286968750673
0.587497630741361
0.585435348549653
0.584506074753028
0.583179704272057
0.581275132121338
0.579911261585262
0.57840592991278
0.576790117005393
0.575253813545054
0.57330192568406
0.57292496241292
0.570396775293028
0.568551309042151
0.566918165951623
0.564498181676512
0.563013619444307
0.56271393013251
0.560854474001532
0.559231776950075
0.557459593133478
0.556238495992144
0.555559469231089
0.554111910623506
0.552278562076581
0.550202028588345
0.549828836121307
0.54737651949791
0.546370779954062
0.545027575053651
0.544346445890718
0.541914039183062
0.540660575033276
0.539795022401984
0.537973495278045
0.536501960990752
0.535410897343563
0.534332408836809
0.532428929198188
0.530734513206352
0.528845591829659
0.527464300666964
0.525697261700854
0.524686564894294
0.522581751715898
0.520103598212106
0.518346468481865
0.515011620580937
0.512996208995004
0.509735031973715
0.505526220744733
0.502729666642415
0.498354298035671
0.493033330983244
0.488028638747423
0.481150556988967
0.474788518251563
0.467217286112667
0.457970829536841
0.450406439371933
0.440599308118463
0.431317014121214
0.419364645019382
0.408406230610222
0.397069329144015
0.384714971104723
0.370197502795918
0.3571507703123
0.34553268996913
0.332534842286866
0.320004663022423
0.308894049014491
0.297432331814709
0.285362182028512
0.275331499790439
0.265060813184278
0.255677946475783
0.247801506946853
0.239629028470594
0.23108970918937
0.225870035441807
0.218986695951141
0.212416441776173
0.207898619276138
0.204129202610254
0.199558224668725
0.196885000122143
0.193137950542173
0.190425793452115
0.187642691232416
0.184912672119715
0.182253029765471
0.179967649061494
0.178776056102511
0.17886443318406
0.176882329473365
0.174907073009661
0.173423532149616
0.171876531099875
0.171321729578257
0.170087598601987
0.169087199037147
0.168304116116474
0.16843767469475
