Created as New Dataset,Sample 007 By Administrator Date Friday, February 16 2018
cm-1,%T
4000.00,96.36
3999.50,96.37
3999.00,96.38
3998.50,96.39
3998.00,96.41
3997.50,96.42
3997.00,96.43
3996.50,96.44
3996.00,96.43
3995.50,96.41
3995.00,96.40
3994.50,96.40
3994.00,96.41
3993.50,96.42
3993.00,96.42
3992.50,96.41
3992.00,96.39
3991.50,96.38
3991.00,96.37
3990.50,96.36
3990.00,96.36
3989.50,96.36
3989.00,96.37
3988.50,96.39
3988.00,96.40
3987.50,96.39
3987.00,96.39
3986.50,96.38
3986.00,96.39
3985.50,96.41
3985.00,96.42
3984.50,96.42
3984.00,96.40
3983.50,96.37
3983.00,96.36
3982.50,96.36
3982.00,96.36
3981.50,96.35
3981.00,96.34
3980.50,96.34
3980.00,96.34
3979.50,96.35
3979.00,96.36
3978.50,96.37
3978.00,96.38
3977.50,96.38
3977.00,96.38
3976.50,96.37
3976.00,96.37
3975.50,96.36
3975.00,96.36
3974.50,96.34
3974.00,96.34
3973.50,96.33
3973.00,96.34
3972.50,96.35
3972.00,96.35
3971.50,96.34
3971.00,96.34
3970.50,96.33
3970.00,96.34
3969.50,96.34
3969.00,96.33
3968.50,96.32
3968.00,96.32
3967.50,96.33
3967.00,96.36
3966.50,96.38
3966.00,96.40
3965.50,96.41
3965.00,96.42
3964.50,96.41
3964.00,96.40
3963.50,96.38
3963.00,96.37
3962.50,96.37
3962.00,96.38
3961.50,96.39
3961.00,96.39
3960.50,96.38
3960.00,96.36
3959.50,96.34
3959.00,96.33
3958.50,96.31
3958.00,96.31
3957.50,96.33
3957.00,96.35
3956.50,96.37
3956.00,96.37
3955.50,96.37
3955.00,96.36
3954.50,96.34
3954.00,96.33
3953.50,96.33
3953.00,96.32
3952.50,96.32
3952.00,96.32
3951.50,96.32
3951.00,96.33
3950.50,96.32
3950.00,96.31
3949.50,96.29
3949.00,96.28
3948.50,96.28
3948.00,96.30
3947.50,96.31
3947.00,96.32
3946.50,96.33
3946.00,96.34
3945.50,96.35
3945.00,96.35
3944.50,96.35
3944.00,96.35
3943.50,96.36
3943.00,96.37
3942.50,96.38
3942.00,96.38
3941.50,96.39
3941.00,96.38
3940.50,96.37
3940.00,96.36
3939.50,96.34
3939.00,96.32
3938.50,96.30
3938.00,96.29
3937.50,96.28
3937.00,96.28
3936.50,96.29
3936.00,96.30
3935.50,96.30
3935.00,96.31
3934.50,96.31
3934.00,96.32
3933.50,96.33
3933.00,96.32
3932.50,96.31
3932.00,96.30
3931.50,96.30
3931.00,96.32
3930.50,96.33
3930.00,96.34
3929.50,96.33
3929.00,96.32
3928.50,96.30
3928.00,96.29
3927.50,96.28
3927.00,96.27
3926.50,96.28
3926.00,96.30
3925.50,96.31
3925.00,96.33
3924.50,96.33
3924.00,96.32
3923.50,96.31
3923.00,96.29
3922.50,96.29
3922.00,96.29
3921.50,96.30
3921.00,96.31
3920.50,96.30
3920.00,96.29
3919.50,96.29
3919.00,96.30
3918.50,96.31
3918.00,96.31
3917.50,96.29
3917.00,96.28
3916.50,96.28
3916.00,96.29
3915.50,96.31
3915.00,96.32
3914.50,96.32
3914.00,96.31
3913.50,96.29
3913.00,96.27
3912.50,96.26
3912.00,96.27
3911.50,96.27
3911.00,96.27
3910.50,96.26
3910.00,96.25
3909.50,96.25
3909.00,96.25
3908.50,96.24
3908.00,96.25
3907.50,96.27
3907.00,96.30
3906.50,96.33
3906.00,96.35
3905.50,96.36
3905.00,96.37
3904.50,96.37
3904.00,96.36
3903.50,96.38
3903.00,96.39
3902.50,96.37
3902.00,96.34
3901.50,96.32
3901.00,96.33
3900.50,96.36
3900.00,96.36
3899.50,96.34
3899.00,96.32
3898.50,96.32
3898.00,96.31
3897.50,96.29
3897.00,96.25
3896.50,96.22
3896.00,96.20
3895.50,96.19
3895.00,96.20
3894.50,96.21
3894.00,96.21
3893.50,96.22
3893.00,96.24
3892.50,96.27
3892.00,96.29
3891.50,96.29
3891.00,96.27
3890.50,96.25
3890.00,96.23
3889.50,96.22
3889.00,96.22
3888.50,96.24
3888.00,96.26
3887.50,96.30
3887.00,96.33
3886.50,96.33
3886.00,96.31
3885.50,96.30
3885.00,96.32
3884.50,96.35
3884.00,96.36
3883.50,96.35
3883.00,96.32
3882.50,96.31
3882.00,96.31
3881.50,96.32
3881.00,96.30
3880.50,96.28
3880.00,96.27
3879.50,96.27
3879.00,96.27
3878.50,96.26
3878.00,96.24
3877.50,96.23
3877.00,96.23
3876.50,96.24
3876.00,96.27
3875.50,96.29
3875.00,96.29
3874.50,96.28
3874.00,96.27
3873.50,96.29
3873.00,96.32
3872.50,96.33
3872.00,96.33
3871.50,96.33
3871.00,96.32
3870.50,96.31
3870.00,96.29
3869.50,96.28
3869.00,96.28
3868.50,96.28
3868.00,96.27
3867.50,96.27
3867.00,96.28
3866.50,96.29
3866.00,96.30
3865.50,96.29
3865.00,96.29
3864.50,96.30
3864.00,96.31
3863.50,96.31
3863.00,96.31
3862.50,96.28
3862.00,96.25
3861.50,96.22
3861.00,96.22
3860.50,96.23
3860.00,96.23
3859.50,96.22
3859.00,96.21
3858.50,96.21
3858.00,96.22
3857.50,96.24
3857.00,96.26
3856.50,96.29
3856.00,96.35
3855.50,96.42
3855.00,96.44
3854.50,96.39
3854.00,96.38
3853.50,96.41
3853.00,96.42
3852.50,96.39
3852.00,96.32
3851.50,96.27
3851.00,96.26
3850.50,96.25
3850.00,96.23
3849.50,96.19
3849.00,96.17
3848.50,96.16
3848.00,96.16
3847.50,96.17
3847.00,96.18
3846.50,96.20
3846.00,96.21
3845.50,96.23
3845.00,96.23
3844.50,96.22
3844.00,96.19
3843.50,96.19
3843.00,96.20
3842.50,96.23
3842.00,96.25
3841.50,96.25
3841.00,96.23
3840.50,96.22
3840.00,96.22
3839.50,96.25
3839.00,96.29
3838.50,96.30
3838.00,96.29
3837.50,96.28
3837.00,96.29
3836.50,96.32
3836.00,96.33
3835.50,96.31
3835.00,96.28
3834.50,96.26
3834.00,96.25
3833.50,96.25
3833.00,96.25
3832.50,96.24
3832.00,96.23
3831.50,96.23
3831.00,96.23
3830.50,96.23
3830.00,96.21
3829.50,96.19
3829.00,96.19
3828.50,96.20
3828.00,96.21
3827.50,96.21
3827.00,96.21
3826.50,96.21
3826.00,96.22
3825.50,96.23
3825.00,96.23
3824.50,96.23
3824.00,96.23
3823.50,96.23
3823.00,96.25
3822.50,96.28
3822.00,96.32
3821.50,96.36
3821.00,96.38
3820.50,96.38
3820.00,96.35
3819.50,96.33
3819.00,96.30
3818.50,96.29
3818.00,96.28
3817.50,96.30
3817.00,96.29
3816.50,96.27
3816.00,96.25
3815.50,96.24
3815.00,96.23
3814.50,96.22
3814.00,96.20
3813.50,96.18
3813.00,96.16
3812.50,96.15
3812.00,96.15
3811.50,96.16
3811.00,96.17
3810.50,96.20
3810.00,96.21
3809.50,96.21
3809.00,96.22
3808.50,96.23
3808.00,96.24
3807.50,96.22
3807.00,96.22
3806.50,96.23
3806.00,96.24
3805.50,96.24
3805.00,96.24
3804.50,96.23
3804.00,96.24
3803.50,96.26
3803.00,96.28
3802.50,96.29
3802.00,96.27
3801.50,96.24
3801.00,96.25
3800.50,96.28
3800.00,96.31
3799.50,96.31
3799.00,96.28
3798.50,96.25
3798.00,96.24
3797.50,96.23
3797.00,96.22
3796.50,96.20
3796.00,96.18
3795.50,96.18
3795.00,96.17
3794.50,96.17
3794.00,96.16
3793.50,96.15
3793.00,96.13
3792.50,96.11
3792.00,96.09
3791.50,96.09
3791.00,96.11
3790.50,96.13
3790.00,96.14
3789.50,96.13
3789.00,96.12
3788.50,96.11
3788.00,96.10
3787.50,96.11
3787.00,96.12
3786.50,96.14
3786.00,96.15
3785.50,96.15
3785.00,96.13
3784.50,96.11
3784.00,96.10
3783.50,96.10
3783.00,96.12
3782.50,96.14
3782.00,96.15
3781.50,96.17
3781.00,96.19
3780.50,96.20
3780.00,96.21
3779.50,96.22
3779.00,96.23
3778.50,96.22
3778.00,96.20
3777.50,96.16
3777.00,96.12
3776.50,96.11
3776.00,96.11
3775.50,96.13
3775.00,96.15
3774.50,96.15
3774.00,96.14
3773.50,96.12
3773.00,96.11
3772.50,96.12
3772.00,96.14
3771.50,96.16
3771.00,96.18
3770.50,96.16
3770.00,96.14
3769.50,96.13
3769.00,96.15
3768.50,96.17
3768.00,96.17
3767.50,96.17
3767.00,96.17
3766.50,96.18
3766.00,96.18
3765.50,96.19
3765.00,96.20
3764.50,96.19
3764.00,96.18
3763.50,96.16
3763.00,96.15
3762.50,96.14
3762.00,96.15
3761.50,96.16
3761.00,96.16
3760.50,96.16
3760.00,96.16
3759.50,96.16
3759.00,96.17
3758.50,96.18
3758.00,96.18
3757.50,96.17
3757.00,96.16
3756.50,96.17
3756.00,96.18
3755.50,96.18
3755.00,96.18
3754.50,96.17
3754.00,96.19
3753.50,96.21
3753.00,96.22
3752.50,96.22
3752.00,96.24
3751.50,96.27
3751.00,96.32
3750.50,96.34
3750.00,96.32
3749.50,96.29
3749.00,96.29
3748.50,96.30
3748.00,96.30
3747.50,96.26
3747.00,96.23
3746.50,96.23
3746.00,96.27
3745.50,96.28
3745.00,96.27
3744.50,96.28
3744.00,96.29
3743.50,96.27
3743.00,96.25
3742.50,96.22
3742.00,96.18
3741.50,96.15
3741.00,96.14
3740.50,96.16
3740.00,96.18
3739.50,96.18
3739.00,96.17
3738.50,96.15
3738.00,96.13
3737.50,96.13
3737.00,96.13
3736.50,96.14
3736.00,96.19
3735.50,96.24
3735.00,96.26
3734.50,96.25
3734.00,96.23
3733.50,96.21
3733.00,96.18
3732.50,96.15
3732.00,96.12
3731.50,96.11
3731.00,96.11
3730.50,96.09
3730.00,96.08
3729.50,96.07
3729.00,96.07
3728.50,96.08
3728.00,96.10
3727.50,96.12
3727.00,96.15
3726.50,96.17
3726.00,96.18
3725.50,96.18
3725.00,96.16
3724.50,96.13
3724.00,96.11
3723.50,96.10
3723.00,96.10
3722.50,96.12
3722.00,96.14
3721.50,96.15
3721.00,96.15
3720.50,96.13
3720.00,96.10
3719.50,96.09
3719.00,96.10
3718.50,96.10
3718.00,96.10
3717.50,96.09
3717.00,96.06
3716.50,96.05
3716.00,96.05
3715.50,96.06
3715.00,96.07
3714.50,96.07
3714.00,96.09
3713.50,96.12
3713.00,96.15
3712.50,96.16
3712.00,96.17
3711.50,96.17
3711.00,96.18
3710.50,96.18
3710.00,96.17
3709.50,96.16
3709.00,96.17
3708.50,96.17
3708.00,96.16
3707.50,96.12
3707.00,96.07
3706.50,96.04
3706.00,96.02
3705.50,96.03
3705.00,96.05
3704.50,96.07
3704.00,96.10
3703.50,96.14
3703.00,96.17
3702.50,96.19
3702.00,96.18
3701.50,96.16
3701.00,96.15
3700.50,96.13
3700.00,96.11
3699.50,96.09
3699.00,96.07
3698.50,96.08
3698.00,96.10
3697.50,96.11
3697.00,96.10
3696.50,96.09
3696.00,96.08
3695.50,96.08
3695.00,96.08
3694.50,96.09
3694.00,96.10
3693.50,96.12
3693.00,96.13
3692.50,96.14
3692.00,96.13
3691.50,96.13
3691.00,96.13
3690.50,96.16
3690.00,96.20
3689.50,96.21
3689.00,96.18
3688.50,96.14
3688.00,96.13
3687.50,96.15
3687.00,96.17
3686.50,96.17
3686.00,96.14
3685.50,96.11
3685.00,96.09
3684.50,96.08
3684.00,96.09
3683.50,96.10
3683.00,96.10
3682.50,96.08
3682.00,96.05
3681.50,96.03
3681.00,96.03
3680.50,96.03
3680.00,96.03
3679.50,96.05
3679.00,96.07
3678.50,96.11
3678.00,96.16
3677.50,96.18
3677.00,96.18
3676.50,96.14
3676.00,96.14
3675.50,96.20
3675.00,96.25
3674.50,96.25
3674.00,96.20
3673.50,96.15
3673.00,96.12
3672.50,96.13
3672.00,96.15
3671.50,96.18
3671.00,96.21
3670.50,96.24
3670.00,96.28
3669.50,96.28
3669.00,96.23
3668.50,96.17
3668.00,96.12
3667.50,96.10
3667.00,96.09
3666.50,96.08
3666.00,96.07
3665.50,96.07
3665.00,96.08
3664.50,96.08
3664.00,96.07
3663.50,96.05
3663.00,96.01
3662.50,95.99
3662.00,95.99
3661.50,95.99
3661.00,95.98
3660.50,95.96
3660.00,95.95
3659.50,95.95
3659.00,95.95
3658.50,95.96
3658.00,95.97
3657.50,95.99
3657.00,95.99
3656.50,96.00
3656.00,96.02
3655.50,96.04
3655.00,96.06
3654.50,96.06
3654.00,96.05
3653.50,96.04
3653.00,96.04
3652.50,96.04
3652.00,96.04
3651.50,96.04
3651.00,96.07
3650.50,96.10
3650.00,96.12
3649.50,96.13
3649.00,96.14
3648.50,96.16
3648.00,96.18
3647.50,96.17
3647.00,96.14
3646.50,96.11
3646.00,96.08
3645.50,96.05
3645.00,96.03
3644.50,96.02
3644.00,96.01
3643.50,96.02
3643.00,96.03
3642.50,96.05
3642.00,96.06
3641.50,96.07
3641.00,96.07
3640.50,96.06
3640.00,96.06
3639.50,96.05
3639.00,96.03
3638.50,96.01
3638.00,96.00
3637.50,95.99
3637.00,95.99
3636.50,96.00
3636.00,96.02
3635.50,96.05
3635.00,96.08
3634.50,96.10
3634.00,96.10
3633.50,96.10
3633.00,96.09
3632.50,96.07
3632.00,96.06
3631.50,96.05
3631.00,96.06
3630.50,96.06
3630.00,96.06
3629.50,96.09
3629.00,96.14
3628.50,96.17
3628.00,96.17
3627.50,96.14
3627.00,96.11
3626.50,96.07
3626.00,96.04
3625.50,96.03
3625.00,96.03
3624.50,96.04
3624.00,96.05
3623.50,96.05
3623.00,96.06
3622.50,96.06
3622.00,96.08
3621.50,96.10
3621.00,96.12
3620.50,96.12
3620.00,96.11
3619.50,96.11
3619.00,96.14
3618.50,96.19
3618.00,96.21
3617.50,96.20
3617.00,96.19
3616.50,96.19
3616.00,96.20
3615.50,96.20
3615.00,96.19
3614.50,96.17
3614.00,96.16
3613.50,96.14
3613.00,96.11
3612.50,96.08
3612.00,96.06
3611.50,96.06
3611.00,96.06
3610.50,96.05
3610.00,96.04
3609.50,96.03
3609.00,96.06
3608.50,96.09
3608.00,96.12
3607.50,96.12
3607.00,96.12
3606.50,96.12
3606.00,96.11
3605.50,96.09
3605.00,96.05
3604.50,96.03
3604.00,96.02
3603.50,96.04
3603.00,96.07
3602.50,96.11
3602.00,96.13
3601.50,96.13
3601.00,96.11
3600.50,96.10
3600.00,96.08
3599.50,96.07
3599.00,96.06
3598.50,96.06
3598.00,96.07
3597.50,96.08
3597.00,96.09
3596.50,96.10
3596.00,96.12
3595.50,96.12
3595.00,96.11
3594.50,96.09
3594.00,96.09
3593.50,96.10
3593.00,96.11
3592.50,96.12
3592.00,96.11
3591.50,96.10
3591.00,96.11
3590.50,96.13
3590.00,96.15
3589.50,96.15
3589.00,96.14
3588.50,96.13
3588.00,96.13
3587.50,96.14
3587.00,96.15
3586.50,96.16
3586.00,96.16
3585.50,96.16
3585.00,96.17
3584.50,96.16
3584.00,96.16
3583.50,96.14
3583.00,96.11
3582.50,96.09
3582.00,96.07
3581.50,96.05
3581.00,96.05
3580.50,96.04
3580.00,96.05
3579.50,96.07
3579.00,96.10
3578.50,96.11
3578.00,96.11
3577.50,96.10
3577.00,96.08
3576.50,96.08
3576.00,96.09
3575.50,96.09
3575.00,96.08
3574.50,96.06
3574.00,96.04
3573.50,96.02
3573.00,96.02
3572.50,96.03
3572.00,96.05
3571.50,96.07
3571.00,96.09
3570.50,96.11
3570.00,96.14
3569.50,96.16
3569.00,96.15
3568.50,96.11
3568.00,96.06
3567.50,96.03
3567.00,96.04
3566.50,96.07
3566.00,96.11
3565.50,96.15
3565.00,96.18
3564.50,96.18
3564.00,96.16
3563.50,96.13
3563.00,96.10
3562.50,96.08
3562.00,96.08
3561.50,96.09
3561.00,96.10
3560.50,96.11
3560.00,96.12
3559.50,96.12
3559.00,96.11
3558.50,96.10
3558.00,96.09
3557.50,96.08
3557.00,96.07
3556.50,96.08
3556.00,96.10
3555.50,96.11
3555.00,96.12
3554.50,96.12
3554.00,96.11
3553.50,96.11
3553.00,96.12
3552.50,96.13
3552.00,96.13
3551.50,96.13
3551.00,96.13
3550.50,96.12
3550.00,96.10
3549.50,96.08
3549.00,96.06
3548.50,96.06
3548.00,96.06
3547.50,96.08
3547.00,96.09
3546.50,96.10
3546.00,96.11
3545.50,96.10
3545.00,96.09
3544.50,96.08
3544.00,96.09
3543.50,96.09
3543.00,96.09
3542.50,96.09
3542.00,96.08
3541.50,96.09
3541.00,96.09
3540.50,96.10
3540.00,96.09
3539.50,96.08
3539.00,96.07
3538.50,96.07
3538.00,96.07
3537.50,96.07
3537.00,96.08
3536.50,96.09
3536.00,96.09
3535.50,96.09
3535.00,96.08
3534.50,96.08
3534.00,96.09
3533.50,96.10
3533.00,96.10
3532.50,96.10
3532.00,96.09
3531.50,96.09
3531.00,96.10
3530.50,96.11
3530.00,96.14
3529.50,96.16
3529.00,96.17
3528.50,96.18
3528.00,96.17
3527.50,96.15
3527.00,96.13
3526.50,96.11
3526.00,96.09
3525.50,96.09
3525.00,96.10
3524.50,96.11
3524.00,96.11
3523.50,96.10
3523.00,96.08
3522.50,96.05
3522.00,96.03
3521.50,96.02
3521.00,96.01
3520.50,96.02
3520.00,96.02
3519.50,96.03
3519.00,96.04
3518.50,96.05
3518.00,96.05
3517.50,96.06
3517.00,96.06
3516.50,96.06
3516.00,96.06
3515.50,96.06
3515.00,96.06
3514.50,96.07
3514.00,96.07
3513.50,96.07
3513.00,96.06
3512.50,96.06
3512.00,96.07
3511.50,96.08
3511.00,96.08
3510.50,96.07
3510.00,96.06
3509.50,96.05
3509.00,96.05
3508.50,96.04
3508.00,96.04
3507.50,96.03
3507.00,96.01
3506.50,96.00
3506.00,96.01
3505.50,96.04
3505.00,96.06
3504.50,96.09
3504.00,96.10
3503.50,96.10
3503.00,96.09
3502.50,96.08
3502.00,96.09
3501.50,96.10
3501.00,96.11
3500.50,96.11
3500.00,96.10
3499.50,96.08
3499.00,96.05
3498.50,96.03
3498.00,96.02
3497.50,96.00
3497.00,95.99
3496.50,95.99
3496.00,96.00
3495.50,96.02
3495.00,96.04
3494.50,96.05
3494.00,96.05
3493.50,96.06
3493.00,96.06
3492.50,96.06
3492.00,96.05
3491.50,96.04
3491.00,96.03
3490.50,96.03
3490.00,96.04
3489.50,96.06
3489.00,96.08
3488.50,96.09
3488.00,96.09
3487.50,96.09
3487.00,96.08
3486.50,96.07
3486.00,96.07
3485.50,96.06
3485.00,96.05
3484.50,96.04
3484.00,96.04
3483.50,96.05
3483.00,96.06
3482.50,96.07
3482.00,96.07
3481.50,96.07
3481.00,96.07
3480.50,96.07
3480.00,96.07
3479.50,96.07
3479.00,96.08
3478.50,96.09
3478.00,96.10
3477.50,96.10
3477.00,96.09
3476.50,96.08
3476.00,96.07
3475.50,96.06
3475.00,96.06
3474.50,96.06
3474.00,96.06
3473.50,96.06
3473.00,96.05
3472.50,96.03
3472.00,96.01
3471.50,95.99
3471.00,95.98
3470.50,95.98
3470.00,95.99
3469.50,96.00
3469.00,96.00
3468.50,96.01
3468.00,96.01
3467.50,96.01
3467.00,96.00
3466.50,95.99
3466.00,95.99
3465.50,95.99
3465.00,96.01
3464.50,96.03
3464.00,96.05
3463.50,96.06
3463.00,96.05
3462.50,96.03
3462.00,96.00
3461.50,95.98
3461.00,95.98
3460.50,95.98
3460.00,95.98
3459.50,95.97
3459.00,95.95
3458.50,95.95
3458.00,95.95
3457.50,95.96
3457.00,95.96
3456.50,95.95
3456.00,95.94
3455.50,95.94
3455.00,95.96
3454.50,95.99
3454.00,96.01
3453.50,96.01
3453.00,96.00
3452.50,95.99
3452.00,95.98
3451.50,95.98
3451.00,95.98
3450.50,95.97
3450.00,95.96
3449.50,95.94
3449.00,95.93
3448.50,95.95
3448.00,95.98
3447.50,96.01
3447.00,96.03
3446.50,96.03
3446.00,96.04
3445.50,96.04
3445.00,96.02
3444.50,96.01
3444.00,96.00
3443.50,96.01
3443.00,96.02
3442.50,96.02
3442.00,96.01
3441.50,95.99
3441.00,95.97
3440.50,95.95
3440.00,95.94
3439.50,95.94
3439.00,95.95
3438.50,95.95
3438.00,95.95
3437.50,95.95
3437.00,95.94
3436.50,95.93
3436.00,95.92
3435.50,95.91
3435.00,95.92
3434.50,95.94
3434.00,95.97
3433.50,95.99
3433.00,95.99
3432.50,95.98
3432.00,95.97
3431.50,95.96
3431.00,95.97
3430.50,95.97
3430.00,95.96
3429.50,95.95
3429.00,95.94
3428.50,95.93
3428.00,95.94
3427.50,95.96
3427.00,95.98
3426.50,96.00
3426.00,96.00
3425.50,95.99
3425.00,95.97
3424.50,95.94
3424.00,95.92
3423.50,95.91
3423.00,95.91
3422.50,95.92
3422.00,95.92
3421.50,95.92
3421.00,95.93
3420.50,95.93
3420.00,95.94
3419.50,95.94
3419.00,95.93
3418.50,95.93
3418.00,95.92
3417.50,95.93
3417.00,95.93
3416.50,95.94
3416.00,95.95
3415.50,95.95
3415.00,95.95
3414.50,95.95
3414.00,95.95
3413.50,95.95
3413.00,95.95
3412.50,95.95
3412.00,95.95
3411.50,95.95
3411.00,95.95
3410.50,95.93
3410.00,95.93
3409.50,95.93
3409.00,95.93
3408.50,95.93
3408.00,95.93
3407.50,95.92
3407.00,95.91
3406.50,95.91
3406.00,95.91
3405.50,95.91
3405.00,95.92
3404.50,95.92
3404.00,95.92
3403.50,95.92
3403.00,95.92
3402.50,95.93
3402.00,95.94
3401.50,95.95
3401.00,95.94
3400.50,95.93
3400.00,95.91
3399.50,95.90
3399.00,95.91
3398.50,95.93
3398.00,95.93
3397.50,95.92
3397.00,95.91
3396.50,95.89
3396.00,95.88
3395.50,95.87
3395.00,95.88
3394.50,95.90
3394.00,95.92
3393.50,95.92
3393.00,95.91
3392.50,95.89
3392.00,95.89
3391.50,95.88
3391.00,95.88
3390.50,95.87
3390.00,95.86
3389.50,95.86
3389.00,95.86
3388.50,95.87
3388.00,95.87
3387.50,95.87
3387.00,95.86
3386.50,95.86
3386.00,95.87
3385.50,95.88
3385.00,95.90
3384.50,95.90
3384.00,95.90
3383.50,95.89
3383.00,95.86
3382.50,95.84
3382.00,95.84
3381.50,95.84
3381.00,95.84
3380.50,95.84
3380.00,95.83
3379.50,95.83
3379.00,95.84
3378.50,95.84
3378.00,95.85
3377.50,95.85
3377.00,95.86
3376.50,95.87
3376.00,95.88
3375.50,95.88
3375.00,95.87
3374.50,95.86
3374.00,95.85
3373.50,95.85
3373.00,95.84
3372.50,95.84
3372.00,95.84
3371.50,95.85
3371.00,95.86
3370.50,95.87
3370.00,95.88
3369.50,95.87
3369.00,95.86
3368.50,95.87
3368.00,95.88
3367.50,95.90
3367.00,95.89
3366.50,95.87
3366.00,95.84
3365.50,95.83
3365.00,95.83
3364.50,95.84
3364.00,95.84
3363.50,95.84
3363.00,95.84
3362.50,95.85
3362.00,95.84
3361.50,95.83
3361.00,95.83
3360.50,95.83
3360.00,95.84
3359.50,95.85
3359.00,95.84
3358.50,95.84
3358.00,95.83
3357.50,95.83
3357.00,95.85
3356.50,95.87
3356.00,95.89
3355.50,95.90
3355.00,95.89
3354.50,95.86
3354.00,95.82
3353.50,95.80
3353.00,95.79
3352.50,95.79
3352.00,95.79
3351.50,95.80
3351.00,95.80
3350.50,95.80
3350.00,95.79
3349.50,95.78
3349.00,95.77
3348.50,95.76
3348.00,95.77
3347.50,95.79
3347.00,95.80
3346.50,95.80
3346.00,95.79
3345.50,95.78
3345.00,95.77
3344.50,95.78
3344.00,95.78
3343.50,95.79
3343.00,95.78
3342.50,95.76
3342.00,95.75
3341.50,95.74
3341.00,95.75
3340.50,95.77
3340.00,95.78
3339.50,95.79
3339.00,95.80
3338.50,95.80
3338.00,95.80
3337.50,95.79
3337.00,95.77
3336.50,95.76
3336.00,95.75
3335.50,95.75
3335.00,95.76
3334.50,95.77
3334.00,95.79
3333.50,95.80
3333.00,95.79
3332.50,95.77
3332.00,95.75
3331.50,95.74
3331.00,95.74
3330.50,95.75
3330.00,95.76
3329.50,95.76
3329.00,95.76
3328.50,95.76
3328.00,95.76
3327.50,95.75
3327.00,95.74
3326.50,95.73
3326.00,95.73
3325.50,95.73
3325.00,95.75
3324.50,95.76
3324.00,95.76
3323.50,95.75
3323.00,95.73
3322.50,95.73
3322.00,95.74
3321.50,95.75
3321.00,95.75
3320.50,95.75
3320.00,95.74
3319.50,95.72
3319.00,95.70
3318.50,95.70
3318.00,95.70
3317.50,95.70
3317.00,95.70
3316.50,95.69
3316.00,95.70
3315.50,95.72
3315.00,95.75
3314.50,95.77
3314.00,95.78
3313.50,95.78
3313.00,95.78
3312.50,95.78
3312.00,95.77
3311.50,95.76
3311.00,95.74
3310.50,95.73
3310.00,95.72
3309.50,95.72
3309.00,95.71
3308.50,95.71
3308.00,95.70
3307.50,95.70
3307.00,95.69
3306.50,95.68
3306.00,95.67
3305.50,95.67
3305.00,95.67
3304.50,95.67
3304.00,95.66
3303.50,95.66
3303.00,95.66
3302.50,95.67
3302.00,95.68
3301.50,95.69
3301.00,95.70
3300.50,95.71
3300.00,95.71
3299.50,95.72
3299.00,95.73
3298.50,95.74
3298.00,95.74
3297.50,95.73
3297.00,95.70
3296.50,95.69
3296.00,95.68
3295.50,95.69
3295.00,95.70
3294.50,95.70
3294.00,95.69
3293.50,95.68
3293.00,95.68
3292.50,95.68
3292.00,95.67
3291.50,95.66
3291.00,95.66
3290.50,95.66
3290.00,95.67
3289.50,95.67
3289.00,95.68
3288.50,95.68
3288.00,95.67
3287.50,95.67
3287.00,95.66
3286.50,95.66
3286.00,95.65
3285.50,95.65
3285.00,95.65
3284.50,95.64
3284.00,95.63
3283.50,95.63
3283.00,95.63
3282.50,95.63
3282.00,95.63
3281.50,95.63
3281.00,95.63
3280.50,95.64
3280.00,95.65
3279.50,95.66
3279.00,95.65
3278.50,95.64
3278.00,95.64
3277.50,95.65
3277.00,95.66
3276.50,95.66
3276.00,95.65
3275.50,95.65
3275.00,95.67
3274.50,95.68
3274.00,95.68
3273.50,95.68
3273.00,95.66
3272.50,95.65
3272.00,95.62
3271.50,95.60
3271.00,95.59
3270.50,95.59
3270.00,95.60
3269.50,95.61
3269.00,95.62
3268.50,95.61
3268.00,95.60
3267.50,95.60
3267.00,95.61
3266.50,95.63
3266.00,95.64
3265.50,95.64
3265.00,95.63
3264.50,95.62
3264.00,95.61
3263.50,95.60
3263.00,95.60
3262.50,95.61
3262.00,95.62
3261.50,95.63
3261.00,95.63
3260.50,95.62
3260.00,95.60
3259.50,95.59
3259.00,95.58
3258.50,95.58
3258.00,95.59
3257.50,95.60
3257.00,95.62
3256.50,95.62
3256.00,95.61
3255.50,95.60
3255.00,95.58
3254.50,95.58
3254.00,95.58
3253.50,95.59
3253.00,95.60
3252.50,95.61
3252.00,95.61
3251.50,95.61
3251.00,95.61
3250.50,95.61
3250.00,95.61
3249.50,95.59
3249.00,95.56
3248.50,95.54
3248.00,95.54
3247.50,95.55
3247.00,95.56
3246.50,95.56
3246.00,95.56
3245.50,95.56
3245.00,95.57
3244.50,95.57
3244.00,95.58
3243.50,95.59
3243.00,95.58
3242.50,95.57
3242.00,95.55
3241.50,95.54
3241.00,95.53
3240.50,95.53
3240.00,95.52
3239.50,95.52
3239.00,95.52
3238.50,95.51
3238.00,95.50
3237.50,95.48
3237.00,95.49
3236.50,95.51
3236.00,95.53
3235.50,95.55
3235.00,95.57
3234.50,95.59
3234.00,95.60
3233.50,95.61
3233.00,95.60
3232.50,95.58
3232.00,95.56
3231.50,95.54
3231.00,95.55
3230.50,95.56
3230.00,95.58
3229.50,95.59
3229.00,95.59
3228.50,95.57
3228.00,95.56
3227.50,95.54
3227.00,95.52
3226.50,95.50
3226.00,95.49
3225.50,95.51
3225.00,95.54
3224.50,95.56
3224.00,95.56
3223.50,95.54
3223.00,95.51
3222.50,95.49
3222.00,95.48
3221.50,95.47
3221.00,95.46
3220.50,95.45
3220.00,95.47
3219.50,95.49
3219.00,95.50
3218.50,95.51
3218.00,95.51
3217.50,95.51
3217.00,95.51
3216.50,95.51
3216.00,95.51
3215.50,95.52
3215.00,95.54
3214.50,95.55
3214.00,95.55
3213.50,95.55
3213.00,95.53
3212.50,95.52
3212.00,95.51
3211.50,95.51
3211.00,95.51
3210.50,95.50
3210.00,95.49
3209.50,95.47
3209.00,95.47
3208.50,95.47
3208.00,95.48
3207.50,95.49
3207.00,95.49
3206.50,95.48
3206.00,95.46
3205.50,95.45
3205.00,95.45
3204.50,95.46
3204.00,95.46
3203.50,95.46
3203.00,95.46
3202.50,95.45
3202.00,95.45
3201.50,95.45
3201.00,95.46
3200.50,95.45
3200.00,95.44
3199.50,95.43
3199.00,95.42
3198.50,95.41
3198.00,95.41
3197.50,95.42
3197.00,95.44
3196.50,95.46
3196.00,95.48
3195.50,95.48
3195.00,95.48
3194.50,95.46
3194.00,95.45
3193.50,95.44
3193.00,95.43
3192.50,95.43
3192.00,95.42
3191.50,95.42
3191.00,95.43
3190.50,95.44
3190.00,95.44
3189.50,95.45
3189.00,95.45
3188.50,95.46
3188.00,95.45
3187.50,95.44
3187.00,95.42
3186.50,95.41
3186.00,95.42
3185.50,95.43
3185.00,95.44
3184.50,95.44
3184.00,95.44
3183.50,95.44
3183.00,95.45
3182.50,95.45
3182.00,95.45
3181.50,95.44
3181.00,95.43
3180.50,95.42
3180.00,95.42
3179.50,95.42
3179.00,95.42
3178.50,95.41
3178.00,95.39
3177.50,95.38
3177.00,95.37
3176.50,95.38
3176.00,95.39
3175.50,95.40
3175.00,95.40
3174.50,95.40
3174.00,95.39
3173.50,95.38
3173.00,95.36
3172.50,95.34
3172.00,95.33
3171.50,95.32
3171.00,95.31
3170.50,95.31
3170.00,95.31
3169.50,95.33
3169.00,95.35
3168.50,95.37
3168.00,95.38
3167.50,95.37
3167.00,95.36
3166.50,95.37
3166.00,95.38
3165.50,95.39
3165.00,95.38
3164.50,95.38
3164.00,95.38
3163.50,95.39
3163.00,95.39
3162.50,95.39
3162.00,95.38
3161.50,95.36
3161.00,95.35
3160.50,95.35
3160.00,95.35
3159.50,95.35
3159.00,95.34
3158.50,95.33
3158.00,95.33
3157.50,95.33
3157.00,95.34
3156.50,95.36
3156.00,95.37
3155.50,95.37
3155.00,95.37
3154.50,95.37
3154.00,95.37
3153.50,95.37
3153.00,95.35
3152.50,95.33
3152.00,95.32
3151.50,95.32
3151.00,95.31
3150.50,95.31
3150.00,95.32
3149.50,95.32
3149.00,95.33
3148.50,95.34
3148.00,95.35
3147.50,95.35
3147.00,95.36
3146.50,95.36
3146.00,95.37
3145.50,95.36
3145.00,95.35
3144.50,95.33
3144.00,95.32
3143.50,95.32
3143.00,95.32
3142.50,95.32
3142.00,95.31
3141.50,95.30
3141.00,95.28
3140.50,95.27
3140.00,95.28
3139.50,95.28
3139.00,95.29
3138.50,95.29
3138.00,95.28
3137.50,95.28
3137.00,95.29
3136.50,95.28
3136.00,95.27
3135.50,95.26
3135.00,95.26
3134.50,95.26
3134.00,95.28
3133.50,95.29
3133.00,95.29
3132.50,95.28
3132.00,95.26
3131.50,95.25
3131.00,95.24
3130.50,95.24
3130.00,95.23
3129.50,95.22
3129.00,95.20
3128.50,95.18
3128.00,95.17
3127.50,95.18
3127.00,95.18
3126.50,95.18
3126.00,95.17
3125.50,95.15
3125.00,95.12
3124.50,95.09
3124.00,95.06
3123.50,95.04
3123.00,95.05
3122.50,95.06
3122.00,95.07
3121.50,95.07
3121.00,95.06
3120.50,95.03
3120.00,95.00
3119.50,94.98
3119.00,94.96
3118.50,94.94
3118.00,94.92
3117.50,94.90
3117.00,94.88
3116.50,94.85
3116.00,94.82
3115.50,94.80
3115.00,94.78
3114.50,94.76
3114.00,94.75
3113.50,94.73
3113.00,94.72
3112.50,94.70
3112.00,94.68
3111.50,94.66
3111.00,94.62
3110.50,94.58
3110.00,94.54
3109.50,94.49
3109.00,94.45
3108.50,94.41
3108.00,94.36
3107.50,94.32
3107.00,94.28
3106.50,94.24
3106.00,94.22
3105.50,94.22
3105.00,94.24
3104.50,94.26
3104.00,94.26
3103.50,94.25
3103.00,94.25
3102.50,94.25
3102.00,94.26
3101.50,94.26
3101.00,94.28
3100.50,94.30
3100.00,94.32
3099.50,94.33
3099.00,94.33
3098.50,94.31
3098.00,94.28
3097.50,94.25
3097.00,94.21
3096.50,94.16
3096.00,94.10
3095.50,94.03
3095.00,93.94
3094.50,93.85
3094.00,93.74
3093.50,93.61
3093.00,93.46
3092.50,93.28
3092.00,93.09
3091.50,92.90
3091.00,92.70
3090.50,92.49
3090.00,92.26
3089.50,92.02
3089.00,91.80
3088.50,91.60
3088.00,91.44
3087.50,91.33
3087.00,91.28
3086.50,91.28
3086.00,91.33
3085.50,91.41
3085.00,91.51
3084.50,91.63
3084.00,91.76
3083.50,91.89
3083.00,92.01
3082.50,92.13
3082.00,92.24
3081.50,92.35
3081.00,92.45
3080.50,92.54
3080.00,92.61
3079.50,92.67
3079.00,92.72
3078.50,92.77
3078.00,92.79
3077.50,92.80
3077.00,92.81
3076.50,92.81
3076.00,92.81
3075.50,92.80
3075.00,92.76
3074.50,92.71
3074.00,92.65
3073.50,92.59
3073.00,92.53
3072.50,92.47
3072.00,92.39
3071.50,92.30
3071.00,92.19
3070.50,92.06
3070.00,91.92
3069.50,91.77
3069.00,91.61
3068.50,91.46
3068.00,91.33
3067.50,91.21
3067.00,91.09
3066.50,90.98
3066.00,90.87
3065.50,90.78
3065.00,90.71
3064.50,90.65
3064.00,90.61
3063.50,90.57
3063.00,90.55
3062.50,90.54
3062.00,90.54
3061.50,90.55
3061.00,90.56
3060.50,90.57
3060.00,90.59
3059.50,90.63
3059.00,90.67
3058.50,90.71
3058.00,90.74
3057.50,90.76
3057.00,90.79
3056.50,90.82
3056.00,90.86
3055.50,90.90
3055.00,90.94
3054.50,90.99
3054.00,91.03
3053.50,91.08
3053.00,91.11
3052.50,91.14
3052.00,91.18
3051.50,91.23
3051.00,91.28
3050.50,91.31
3050.00,91.34
3049.50,91.36
3049.00,91.38
3048.50,91.39
3048.00,91.40
3047.50,91.41
3047.00,91.41
3046.50,91.41
3046.00,91.38
3045.50,91.35
3045.00,91.30
3044.50,91.26
3044.00,91.23
3043.50,91.20
3043.00,91.15
3042.50,91.09
3042.00,91.01
3041.50,90.91
3041.00,90.79
3040.50,90.65
3040.00,90.48
3039.50,90.31
3039.00,90.13
3038.50,89.94
3038.00,89.73
3037.50,89.50
3037.00,89.24
3036.50,88.97
3036.00,88.69
3035.50,88.40
3035.00,88.10
3034.50,87.80
3034.00,87.50
3033.50,87.19
3033.00,86.88
3032.50,86.56
3032.00,86.24
3031.50,85.94
3031.00,85.67
3030.50,85.43
3030.00,85.21
3029.50,85.01
3029.00,84.83
3028.50,84.69
3028.00,84.58
3027.50,84.49
3027.00,84.44
3026.50,84.42
3026.00,84.45
3025.50,84.53
3025.00,84.65
3024.50,84.82
3024.00,85.04
3023.50,85.29
3023.00,85.58
3022.50,85.88
3022.00,86.21
3021.50,86.54
3021.00,86.88
3020.50,87.22
3020.00,87.54
3019.50,87.83
3019.00,88.12
3018.50,88.39
3018.00,88.65
3017.50,88.90
3017.00,89.13
3016.50,89.35
3016.00,89.56
3015.50,89.77
3015.00,89.95
3014.50,90.10
3014.00,90.23
3013.50,90.36
3013.00,90.48
3012.50,90.60
3012.00,90.71
3011.50,90.80
3011.00,90.88
3010.50,90.95
3010.00,91.03
3009.50,91.09
3009.00,91.14
3008.50,91.18
3008.00,91.20
3007.50,91.21
3007.00,91.22
3006.50,91.24
3006.00,91.27
3005.50,91.30
3005.00,91.32
3004.50,91.33
3004.00,91.34
3003.50,91.36
3003.00,91.38
3002.50,91.40
3002.00,91.42
3001.50,91.46
3001.00,91.52
3000.50,91.57
3000.00,91.63
2999.50,91.68
2999.00,91.73
2998.50,91.76
2998.00,91.79
2997.50,91.82
2997.00,91.85
2996.50,91.88
2996.00,91.91
2995.50,91.94
2995.00,91.95
2994.50,91.97
2994.00,91.99
2993.50,92.02
2993.00,92.05
2992.50,92.07
2992.00,92.08
2991.50,92.07
2991.00,92.06
2990.50,92.05
2990.00,92.05
2989.50,92.02
2989.00,91.99
2988.50,91.96
2988.00,91.93
2987.50,91.91
2987.00,91.88
2986.50,91.86
2986.00,91.83
2985.50,91.79
2985.00,91.75
2984.50,91.71
2984.00,91.67
2983.50,91.64
2983.00,91.60
2982.50,91.57
2982.00,91.56
2981.50,91.56
2981.00,91.57
2980.50,91.58
2980.00,91.58
2979.50,91.59
2979.00,91.60
2978.50,91.61
2978.00,91.61
2977.50,91.61
2977.00,91.61
2976.50,91.62
2976.00,91.64
2975.50,91.67
2975.00,91.68
2974.50,91.69
2974.00,91.69
2973.50,91.70
2973.00,91.70
2972.50,91.70
2972.00,91.69
2971.50,91.69
2971.00,91.70
2970.50,91.73
2970.00,91.77
2969.50,91.80
2969.00,91.82
2968.50,91.82
2968.00,91.82
2967.50,91.83
2967.00,91.83
2966.50,91.84
2966.00,91.84
2965.50,91.83
2965.00,91.82
2964.50,91.79
2964.00,91.76
2963.50,91.72
2963.00,91.67
2962.50,91.63
2962.00,91.58
2961.50,91.55
2961.00,91.52
2960.50,91.48
2960.00,91.44
2959.50,91.40
2959.00,91.37
2958.50,91.34
2958.00,91.31
2957.50,91.29
2957.00,91.27
2956.50,91.25
2956.00,91.23
2955.50,91.22
2955.00,91.20
2954.50,91.18
2954.00,91.17
2953.50,91.16
2953.00,91.16
2952.50,91.15
2952.00,91.14
2951.50,91.12
2951.00,91.10
2950.50,91.09
2950.00,91.08
2949.50,91.07
2949.00,91.06
2948.50,91.04
2948.00,91.02
2947.50,91.01
2947.00,91.01
2946.50,91.03
2946.00,91.04
2945.50,91.05
2945.00,91.06
2944.50,91.06
2944.00,91.07
2943.50,91.08
2943.00,91.10
2942.50,91.10
2942.00,91.11
2941.50,91.11
2941.00,91.12
2940.50,91.13
2940.00,91.13
2939.50,91.14
2939.00,91.13
2938.50,91.12
2938.00,91.11
2937.50,91.13
2937.00,91.15
2936.50,91.14
2936.00,91.11
2935.50,91.05
2935.00,90.99
2934.50,90.94
2934.00,90.89
2933.50,90.85
2933.00,90.80
2932.50,90.74
2932.00,90.68
2931.50,90.62
2931.00,90.55
2930.50,90.48
2930.00,90.40
2929.50,90.32
2929.00,90.24
2928.50,90.14
2928.00,90.03
2927.50,89.90
2927.00,89.78
2926.50,89.67
2926.00,89.57
2925.50,89.47
2925.00,89.36
2924.50,89.25
2924.00,89.13
2923.50,89.01
2923.00,88.91
2922.50,88.82
2922.00,88.75
2921.50,88.69
2921.00,88.64
2920.50,88.61
2920.00,88.60
2919.50,88.60
2919.00,88.62
2918.50,88.65
2918.00,88.70
2917.50,88.78
2917.00,88.89
2916.50,89.01
2916.00,89.13
2915.50,89.25
2915.00,89.39
2914.50,89.53
2914.00,89.68
2913.50,89.84
2913.00,90.00
2912.50,90.16
2912.00,90.32
2911.50,90.48
2911.00,90.63
2910.50,90.78
2910.00,90.92
2909.50,91.05
2909.00,91.18
2908.50,91.29
2908.00,91.41
2907.50,91.52
2907.00,91.62
2906.50,91.73
2906.00,91.83
2905.50,91.91
2905.00,91.99
2904.50,92.05
2904.00,92.11
2903.50,92.16
2903.00,92.21
2902.50,92.26
2902.00,92.30
2901.50,92.34
2901.00,92.39
2900.50,92.43
2900.00,92.46
2899.50,92.49
2899.00,92.51
2898.50,92.53
2898.00,92.55
2897.50,92.57
2897.00,92.59
2896.50,92.60
2896.00,92.61
2895.50,92.63
2895.00,92.63
2894.50,92.64
2894.00,92.65
2893.50,92.65
2893.00,92.65
2892.50,92.63
2892.00,92.60
2891.50,92.57
2891.00,92.53
2890.50,92.51
2890.00,92.49
2889.50,92.47
2889.00,92.45
2888.50,92.44
2888.00,92.42
2887.50,92.40
2887.00,92.37
2886.50,92.33
2886.00,92.30
2885.50,92.27
2885.00,92.26
2884.50,92.23
2884.00,92.19
2883.50,92.14
2883.00,92.09
2882.50,92.05
2882.00,92.03
2881.50,92.00
2881.00,91.96
2880.50,91.91
2880.00,91.86
2879.50,91.82
2879.00,91.80
2878.50,91.77
2878.00,91.75
2877.50,91.73
2877.00,91.70
2876.50,91.68
2876.00,91.66
2875.50,91.64
2875.00,91.61
2874.50,91.60
2874.00,91.59
2873.50,91.58
2873.00,91.57
2872.50,91.55
2872.00,91.54
2871.50,91.53
2871.00,91.53
2870.50,91.53
2870.00,91.53
2869.50,91.53
2869.00,91.53
2868.50,91.54
2868.00,91.55
2867.50,91.57
2867.00,91.59
2866.50,91.60
2866.00,91.62
2865.50,91.62
2865.00,91.63
2864.50,91.62
2864.00,91.61
2863.50,91.61
2863.00,91.62
2862.50,91.64
2862.00,91.66
2861.50,91.68
2861.00,91.70
2860.50,91.72
2860.00,91.74
2859.50,91.78
2859.00,91.82
2858.50,91.88
2858.00,91.94
2857.50,92.00
2857.00,92.06
2856.50,92.12
2856.00,92.18
2855.50,92.24
2855.00,92.30
2854.50,92.36
2854.00,92.42
2853.50,92.48
2853.00,92.55
2852.50,92.61
2852.00,92.69
2851.50,92.77
2851.00,92.84
2850.50,92.90
2850.00,92.95
2849.50,93.00
2849.00,93.04
2848.50,93.09
2848.00,93.14
2847.50,93.20
2847.00,93.25
2846.50,93.29
2846.00,93.33
2845.50,93.37
2845.00,93.41
2844.50,93.44
2844.00,93.47
2843.50,93.49
2843.00,93.52
2842.50,93.56
2842.00,93.60
2841.50,93.64
2841.00,93.68
2840.50,93.70
2840.00,93.73
2839.50,93.75
2839.00,93.77
2838.50,93.80
2838.00,93.81
2837.50,93.82
2837.00,93.82
2836.50,93.82
2836.00,93.82
2835.50,93.82
2835.00,93.83
2834.50,93.84
2834.00,93.85
2833.50,93.87
2833.00,93.90
2832.50,93.94
2832.00,93.98
2831.50,94.00
2831.00,94.02
2830.50,94.02
2830.00,94.02
2829.50,94.03
2829.00,94.04
2828.50,94.04
2828.00,94.03
2827.50,94.04
2827.00,94.06
2826.50,94.09
2826.00,94.11
2825.50,94.11
2825.00,94.10
2824.50,94.10
2824.00,94.11
2823.50,94.12
2823.00,94.12
2822.50,94.10
2822.00,94.09
2821.50,94.08
2821.00,94.09
2820.50,94.11
2820.00,94.13
2819.50,94.15
2819.00,94.17
2818.50,94.17
2818.00,94.16
2817.50,94.15
2817.00,94.15
2816.50,94.17
2816.00,94.18
2815.50,94.19
2815.00,94.18
2814.50,94.17
2814.00,94.16
2813.50,94.16
2813.00,94.18
2812.50,94.20
2812.00,94.22
2811.50,94.23
2811.00,94.23
2810.50,94.22
2810.00,94.20
2809.50,94.20
2809.00,94.21
2808.50,94.22
2808.00,94.22
2807.50,94.22
2807.00,94.22
2806.50,94.23
2806.00,94.23
2805.50,94.24
2805.00,94.25
2804.50,94.26
2804.00,94.27
2803.50,94.28
2803.00,94.28
2802.50,94.28
2802.00,94.28
2801.50,94.29
2801.00,94.29
2800.50,94.30
2800.00,94.31
2799.50,94.31
2799.00,94.31
2798.50,94.31
2798.00,94.29
2797.50,94.28
2797.00,94.28
2796.50,94.28
2796.00,94.28
2795.50,94.28
2795.00,94.29
2794.50,94.31
2794.00,94.32
2793.50,94.33
2793.00,94.33
2792.50,94.33
2792.00,94.33
2791.50,94.33
2791.00,94.34
2790.50,94.35
2790.00,94.36
2789.50,94.36
2789.00,94.35
2788.50,94.34
2788.00,94.33
2787.50,94.33
2787.00,94.33
2786.50,94.34
2786.00,94.35
2785.50,94.36
2785.00,94.37
2784.50,94.36
2784.00,94.35
2783.50,94.34
2783.00,94.33
2782.50,94.32
2782.00,94.32
2781.50,94.31
2781.00,94.31
2780.50,94.31
2780.00,94.31
2779.50,94.32
2779.00,94.32
2778.50,94.33
2778.00,94.33
2777.50,94.33
2777.00,94.33
2776.50,94.33
2776.00,94.33
2775.50,94.33
2775.00,94.33
2774.50,94.33
2774.00,94.33
2773.50,94.32
2773.00,94.32
2772.50,94.32
2772.00,94.32
2771.50,94.33
2771.00,94.35
2770.50,94.37
2770.00,94.38
2769.50,94.38
2769.00,94.37
2768.50,94.35
2768.00,94.33
2767.50,94.32
2767.00,94.32
2766.50,94.33
2766.00,94.33
2765.50,94.34
2765.00,94.35
2764.50,94.36
2764.00,94.37
2763.50,94.38
2763.00,94.38
2762.50,94.37
2762.00,94.37
2761.50,94.37
2761.00,94.37
2760.50,94.38
2760.00,94.37
2759.50,94.37
2759.00,94.36
2758.50,94.35
2758.00,94.34
2757.50,94.34
2757.00,94.33
2756.50,94.32
2756.00,94.31
2755.50,94.31
2755.00,94.32
2754.50,94.33
2754.00,94.34
2753.50,94.34
2753.00,94.34
2752.50,94.33
2752.00,94.32
2751.50,94.31
2751.00,94.31
2750.50,94.31
2750.00,94.30
2749.50,94.29
2749.00,94.29
2748.50,94.28
2748.00,94.28
2747.50,94.27
2747.00,94.26
2746.50,94.25
2746.00,94.24
2745.50,94.24
2745.00,94.23
2744.50,94.22
2744.00,94.21
2743.50,94.20
2743.00,94.19
2742.50,94.17
2742.00,94.15
2741.50,94.13
2741.00,94.11
2740.50,94.08
2740.00,94.04
2739.50,94.00
2739.00,93.97
2738.50,93.93
2738.00,93.89
2737.50,93.87
2737.00,93.85
2736.50,93.83
2736.00,93.80
2735.50,93.78
2735.00,93.77
2734.50,93.76
2734.00,93.76
2733.50,93.76
2733.00,93.77
2732.50,93.79
2732.00,93.82
2731.50,93.85
2731.00,93.88
2730.50,93.91
2730.00,93.93
2729.50,93.96
2729.00,93.99
2728.50,94.02
2728.00,94.05
2727.50,94.07
2727.00,94.10
2726.50,94.12
2726.00,94.13
2725.50,94.14
2725.00,94.15
2724.50,94.16
2724.00,94.18
2723.50,94.20
2723.00,94.22
2722.50,94.23
2722.00,94.24
2721.50,94.24
2721.00,94.24
2720.50,94.24
2720.00,94.23
2719.50,94.24
2719.00,94.24
2718.50,94.25
2718.00,94.24
2717.50,94.24
2717.00,94.23
2716.50,94.24
2716.00,94.25
2715.50,94.26
2715.00,94.25
2714.50,94.23
2714.00,94.22
2713.50,94.22
2713.00,94.23
2712.50,94.23
2712.00,94.23
2711.50,94.24
2711.00,94.24
2710.50,94.24
2710.00,94.23
2709.50,94.23
2709.00,94.24
2708.50,94.25
2708.00,94.26
2707.50,94.27
2707.00,94.28
2706.50,94.29
2706.00,94.29
2705.50,94.29
2705.00,94.29
2704.50,94.29
2704.00,94.30
2703.50,94.30
2703.00,94.29
2702.50,94.28
2702.00,94.27
2701.50,94.26
2701.00,94.25
2700.50,94.24
2700.00,94.24
2699.50,94.23
2699.00,94.23
2698.50,94.23
2698.00,94.24
2697.50,94.25
2697.00,94.26
2696.50,94.28
2696.00,94.28
2695.50,94.29
2695.00,94.28
2694.50,94.27
2694.00,94.26
2693.50,94.25
2693.00,94.25
2692.50,94.25
2692.00,94.24
2691.50,94.24
2691.00,94.24
2690.50,94.24
2690.00,94.23
2689.50,94.22
2689.00,94.22
2688.50,94.22
2688.00,94.23
2687.50,94.24
2687.00,94.24
2686.50,94.25
2686.00,94.24
2685.50,94.23
2685.00,94.22
2684.50,94.21
2684.00,94.21
2683.50,94.22
2683.00,94.22
2682.50,94.22
2682.00,94.22
2681.50,94.23
2681.00,94.24
2680.50,94.24
2680.00,94.24
2679.50,94.24
2679.00,94.23
2678.50,94.23
2678.00,94.23
2677.50,94.23
2677.00,94.22
2676.50,94.22
2676.00,94.22
2675.50,94.22
2675.00,94.20
2674.50,94.20
2674.00,94.20
2673.50,94.21
2673.00,94.22
2672.50,94.22
2672.00,94.21
2671.50,94.21
2671.00,94.20
2670.50,94.20
2670.00,94.20
2669.50,94.20
2669.00,94.20
2668.50,94.20
2668.00,94.20
2667.50,94.20
2667.00,94.19
2666.50,94.18
2666.00,94.18
2665.50,94.17
2665.00,94.17
2664.50,94.17
2664.00,94.17
2663.50,94.16
2663.00,94.16
2662.50,94.16
2662.00,94.17
2661.50,94.18
2661.00,94.17
2660.50,94.17
2660.00,94.16
2659.50,94.16
2659.00,94.16
2658.50,94.16
2658.00,94.16
2657.50,94.16
2657.00,94.16
2656.50,94.16
2656.00,94.15
2655.50,94.14
2655.00,94.14
2654.50,94.13
2654.00,94.13
2653.50,94.12
2653.00,94.10
2652.50,94.08
2652.00,94.07
2651.50,94.07
2651.00,94.08
2650.50,94.10
2650.00,94.10
2649.50,94.09
2649.00,94.08
2648.50,94.07
2648.00,94.07
2647.50,94.07
2647.00,94.08
2646.50,94.08
2646.00,94.09
2645.50,94.10
2645.00,94.11
2644.50,94.11
2644.00,94.10
2643.50,94.07
2643.00,94.06
2642.50,94.05
2642.00,94.06
2641.50,94.07
2641.00,94.07
2640.50,94.06
2640.00,94.06
2639.50,94.05
2639.00,94.05
2638.50,94.05
2638.00,94.06
2637.50,94.06
2637.00,94.07
2636.50,94.07
2636.00,94.07
2635.50,94.06
2635.00,94.04
2634.50,94.02
2634.00,94.00
2633.50,94.00
2633.00,94.00
2632.50,94.01
2632.00,94.01
2631.50,94.00
2631.00,93.99
2630.50,93.98
2630.00,93.96
2629.50,93.96
2629.00,93.96
2628.50,93.97
2628.00,93.99
2627.50,94.01
2627.00,94.02
2626.50,94.02
2626.00,94.01
2625.50,93.99
2625.00,93.97
2624.50,93.96
2624.00,93.96
2623.50,93.97
2623.00,93.98
2622.50,93.99
2622.00,93.99
2621.50,94.00
2621.00,94.00
2620.50,93.99
2620.00,93.99
2619.50,93.98
2619.00,93.97
2618.50,93.98
2618.00,93.98
2617.50,93.99
2617.00,93.98
2616.50,93.98
2616.00,93.98
2615.50,93.98
2615.00,93.98
2614.50,93.97
2614.00,93.96
2613.50,93.96
2613.00,93.96
2612.50,93.96
2612.00,93.96
2611.50,93.95
2611.00,93.95
2610.50,93.94
2610.00,93.94
2609.50,93.94
2609.00,93.95
2608.50,93.95
2608.00,93.94
2607.50,93.93
2607.00,93.92
2606.50,93.93
2606.00,93.93
2605.50,93.93
2605.00,93.91
2604.50,93.89
2604.00,93.87
2603.50,93.87
2603.00,93.87
2602.50,93.87
2602.00,93.88
2601.50,93.89
2601.00,93.90
2600.50,93.92
2600.00,93.93
2599.50,93.94
2599.00,93.95
2598.50,93.95
2598.00,93.95
2597.50,93.94
2597.00,93.94
2596.50,93.95
2596.00,93.95
2595.50,93.93
2595.00,93.90
2594.50,93.88
2594.00,93.86
2593.50,93.86
2593.00,93.86
2592.50,93.86
2592.00,93.85
2591.50,93.84
2591.00,93.81
2590.50,93.79
2590.00,93.76
2589.50,93.75
2589.00,93.73
2588.50,93.73
2588.00,93.73
2587.50,93.73
2587.00,93.73
2586.50,93.73
2586.00,93.72
2585.50,93.72
2585.00,93.72
2584.50,93.73
2584.00,93.75
2583.50,93.77
2583.00,93.79
2582.50,93.79
2582.00,93.78
2581.50,93.76
2581.00,93.74
2580.50,93.74
2580.00,93.76
2579.50,93.79
2579.00,93.80
2578.50,93.81
2578.00,93.82
2577.50,93.84
2577.00,93.85
2576.50,93.85
2576.00,93.86
2575.50,93.87
2575.00,93.89
2574.50,93.90
2574.00,93.90
2573.50,93.89
2573.00,93.88
2572.50,93.87
2572.00,93.85
2571.50,93.85
2571.00,93.85
2570.50,93.85
2570.00,93.85
2569.50,93.84
2569.00,93.85
2568.50,93.88
2568.00,93.92
2567.50,93.94
2567.00,93.94
2566.50,93.92
2566.00,93.89
2565.50,93.88
2565.00,93.86
2564.50,93.85
2564.00,93.85
2563.50,93.84
2563.00,93.82
2562.50,93.81
2562.00,93.80
2561.50,93.80
2561.00,93.82
2560.50,93.83
2560.00,93.84
2559.50,93.84
2559.00,93.83
2558.50,93.81
2558.00,93.81
2557.50,93.82
2557.00,93.84
2556.50,93.86
2556.00,93.85
2555.50,93.84
2555.00,93.84
2554.50,93.84
2554.00,93.85
2553.50,93.85
2553.00,93.83
2552.50,93.81
2552.00,93.80
2551.50,93.81
2551.00,93.82
2550.50,93.82
2550.00,93.83
2549.50,93.83
2549.00,93.83
2548.50,93.83
2548.00,93.82
2547.50,93.80
2547.00,93.78
2546.50,93.77
2546.00,93.77
2545.50,93.78
2545.00,93.79
2544.50,93.81
2544.00,93.83
2543.50,93.84
2543.00,93.83
2542.50,93.81
2542.00,93.77
2541.50,93.74
2541.00,93.72
2540.50,93.74
2540.00,93.75
2539.50,93.76
2539.00,93.77
2538.50,93.77
2538.00,93.79
2537.50,93.80
2537.00,93.81
2536.50,93.82
2536.00,93.81
2535.50,93.81
2535.00,93.82
2534.50,93.82
2534.00,93.82
2533.50,93.81
2533.00,93.81
2532.50,93.79
2532.00,93.77
2531.50,93.75
2531.00,93.74
2530.50,93.73
2530.00,93.74
2529.50,93.75
2529.00,93.77
2528.50,93.80
2528.00,93.82
2527.50,93.83
2527.00,93.82
2526.50,93.79
2526.00,93.76
2525.50,93.74
2525.00,93.74
2524.50,93.74
2524.00,93.76
2523.50,93.78
2523.00,93.80
2522.50,93.81
2522.00,93.80
2521.50,93.79
2521.00,93.77
2520.50,93.77
2520.00,93.79
2519.50,93.81
2519.00,93.82
2518.50,93.81
2518.00,93.79
2517.50,93.78
2517.00,93.79
2516.50,93.80
2516.00,93.81
2515.50,93.81
2515.00,93.79
2514.50,93.77
2514.00,93.75
2513.50,93.75
2513.00,93.75
2512.50,93.75
2512.00,93.74
2511.50,93.74
2511.00,93.74
2510.50,93.73
2510.00,93.72
2509.50,93.70
2509.00,93.69
2508.50,93.70
2508.00,93.71
2507.50,93.72
2507.00,93.72
2506.50,93.73
2506.00,93.73
2505.50,93.74
2505.00,93.74
2504.50,93.75
2504.00,93.76
2503.50,93.76
2503.00,93.77
2502.50,93.77
2502.00,93.76
2501.50,93.74
2501.00,93.70
2500.50,93.67
2500.00,93.66
2499.50,93.67
2499.00,93.68
2498.50,93.70
2498.00,93.70
2497.50,93.69
2497.00,93.67
2496.50,93.65
2496.00,93.63
2495.50,93.62
2495.00,93.61
2494.50,93.62
2494.00,93.63
2493.50,93.65
2493.00,93.67
2492.50,93.69
2492.00,93.69
2491.50,93.68
2491.00,93.67
2490.50,93.66
2490.00,93.66
2489.50,93.67
2489.00,93.68
2488.50,93.68
2488.00,93.67
2487.50,93.65
2487.00,93.63
2486.50,93.63
2486.00,93.65
2485.50,93.68
2485.00,93.70
2484.50,93.71
2484.00,93.71
2483.50,93.71
2483.00,93.71
2482.50,93.71
2482.00,93.70
2481.50,93.68
2481.00,93.67
2480.50,93.68
2480.00,93.69
2479.50,93.70
2479.00,93.69
2478.50,93.66
2478.00,93.63
2477.50,93.61
2477.00,93.61
2476.50,93.62
2476.00,93.64
2475.50,93.65
2475.00,93.66
2474.50,93.66
2474.00,93.68
2473.50,93.69
2473.00,93.69
2472.50,93.68
2472.00,93.67
2471.50,93.67
2471.00,93.67
2470.50,93.66
2470.00,93.65
2469.50,93.64
2469.00,93.64
2468.50,93.62
2468.00,93.59
2467.50,93.56
2467.00,93.54
2466.50,93.56
2466.00,93.60
2465.50,93.64
2465.00,93.67
2464.50,93.67
2464.00,93.66
2463.50,93.64
2463.00,93.64
2462.50,93.65
2462.00,93.67
2461.50,93.68
2461.00,93.67
2460.50,93.64
2460.00,93.63
2459.50,93.63
2459.00,93.64
2458.50,93.65
2458.00,93.66
2457.50,93.65
2457.00,93.64
2456.50,93.63
2456.00,93.62
2455.50,93.62
2455.00,93.61
2454.50,93.61
2454.00,93.61
2453.50,93.61
2453.00,93.60
2452.50,93.60
2452.00,93.60
2451.50,93.61
2451.00,93.63
2450.50,93.66
2450.00,93.67
2449.50,93.66
2449.00,93.62
2448.50,93.58
2448.00,93.56
2447.50,93.56
2447.00,93.58
2446.50,93.60
2446.00,93.61
2445.50,93.62
2445.00,93.63
2444.50,93.62
2444.00,93.62
2443.50,93.61
2443.00,93.61
2442.50,93.61
2442.00,93.63
2441.50,93.64
2441.00,93.64
2440.50,93.63
2440.00,93.63
2439.50,93.61
2439.00,93.59
2438.50,93.56
2438.00,93.54
2437.50,93.53
2437.00,93.53
2436.50,93.52
2436.00,93.53
2435.50,93.54
2435.00,93.57
2434.50,93.58
2434.00,93.59
2433.50,93.58
2433.00,93.57
2432.50,93.57
2432.00,93.58
2431.50,93.59
2431.00,93.57
2430.50,93.54
2430.00,93.51
2429.50,93.50
2429.00,93.53
2428.50,93.55
2428.00,93.57
2427.50,93.56
2427.00,93.54
2426.50,93.52
2426.00,93.51
2425.50,93.51
2425.00,93.51
2424.50,93.52
2424.00,93.52
2423.50,93.51
2423.00,93.51
2422.50,93.50
2422.00,93.50
2421.50,93.49
2421.00,93.48
2420.50,93.47
2420.00,93.46
2419.50,93.45
2419.00,93.45
2418.50,93.45
2418.00,93.46
2417.50,93.47
2417.00,93.47
2416.50,93.48
2416.00,93.48
2415.50,93.48
2415.00,93.48
2414.50,93.48
2414.00,93.47
2413.50,93.46
2413.00,93.45
2412.50,93.43
2412.00,93.42
2411.50,93.41
2411.00,93.40
2410.50,93.40
2410.00,93.41
2409.50,93.41
2409.00,93.41
2408.50,93.41
2408.00,93.41
2407.50,93.43
2407.00,93.45
2406.50,93.48
2406.00,93.50
2405.50,93.50
2405.00,93.48
2404.50,93.46
2404.00,93.45
2403.50,93.46
2403.00,93.48
2402.50,93.49
2402.00,93.50
2401.50,93.50
2401.00,93.51
2400.50,93.51
2400.00,93.51
2399.50,93.51
2399.00,93.52
2398.50,93.53
2398.00,93.54
2397.50,93.55
2397.00,93.55
2396.50,93.55
2396.00,93.54
2395.50,93.51
2395.00,93.49
2394.50,93.47
2394.00,93.46
2393.50,93.45
2393.00,93.44
2392.50,93.45
2392.00,93.46
2391.50,93.46
2391.00,93.44
2390.50,93.40
2390.00,93.37
2389.50,93.36
2389.00,93.37
2388.50,93.38
2388.00,93.39
2387.50,93.39
2387.00,93.38
2386.50,93.37
2386.00,93.36
2385.50,93.37
2385.00,93.37
2384.50,93.37
2384.00,93.36
2383.50,93.35
2383.00,93.33
2382.50,93.33
2382.00,93.33
2381.50,93.33
2381.00,93.32
2380.50,93.32
2380.00,93.32
2379.50,93.33
2379.00,93.35
2378.50,93.37
2378.00,93.38
2377.50,93.38
2377.00,93.37
2376.50,93.35
2376.00,93.34
2375.50,93.34
2375.00,93.34
2374.50,93.35
2374.00,93.34
2373.50,93.32
2373.00,93.30
2372.50,93.30
2372.00,93.31
2371.50,93.31
2371.00,93.30
2370.50,93.28
2370.00,93.26
2369.50,93.25
2369.00,93.25
2368.50,93.28
2368.00,93.30
2367.50,93.30
2367.00,93.27
2366.50,93.25
2366.00,93.26
2365.50,93.29
2365.00,93.34
2364.50,93.39
2364.00,93.42
2363.50,93.39
2363.00,93.31
2362.50,93.25
2362.00,93.25
2361.50,93.27
2361.00,93.27
2360.50,93.25
2360.00,93.23
2359.50,93.25
2359.00,93.27
2358.50,93.30
2358.00,93.35
2357.50,93.37
2357.00,93.34
2356.50,93.27
2356.00,93.23
2355.50,93.26
2355.00,93.32
2354.50,93.37
2354.00,93.39
2353.50,93.37
2353.00,93.33
2352.50,93.32
2352.00,93.33
2351.50,93.35
2351.00,93.37
2350.50,93.37
2350.00,93.35
2349.50,93.30
2349.00,93.21
2348.50,93.09
2348.00,93.02
2347.50,93.01
2347.00,93.02
2346.50,93.04
2346.00,93.07
2345.50,93.09
2345.00,93.10
2344.50,93.10
2344.00,93.13
2343.50,93.19
2343.00,93.25
2342.50,93.30
2342.00,93.33
2341.50,93.35
2341.00,93.39
2340.50,93.42
2340.00,93.43
2339.50,93.43
2339.00,93.42
2338.50,93.36
2338.00,93.29
2337.50,93.26
2337.00,93.25
2336.50,93.23
2336.00,93.23
2335.50,93.26
2335.00,93.26
2334.50,93.20
2334.00,93.15
2333.50,93.16
2333.00,93.20
2332.50,93.23
2332.00,93.24
2331.50,93.25
2331.00,93.25
2330.50,93.24
2330.00,93.25
2329.50,93.31
2329.00,93.36
2328.50,93.38
2328.00,93.39
2327.50,93.40
2327.00,93.37
2326.50,93.32
2326.00,93.30
2325.50,93.29
2325.00,93.23
2324.50,93.17
2324.00,93.19
2323.50,93.27
2323.00,93.33
2322.50,93.32
2322.00,93.31
2321.50,93.30
2321.00,93.28
2320.50,93.26
2320.00,93.29
2319.50,93.32
2319.00,93.30
2318.50,93.24
2318.00,93.20
2317.50,93.19
2317.00,93.18
2316.50,93.17
2316.00,93.19
2315.50,93.22
2315.00,93.21
2314.50,93.18
2314.00,93.16
2313.50,93.16
2313.00,93.15
2312.50,93.13
2312.00,93.12
2311.50,93.15
2311.00,93.19
2310.50,93.21
2310.00,93.22
2309.50,93.22
2309.00,93.22
2308.50,93.22
2308.00,93.21
2307.50,93.22
2307.00,93.26
2306.50,93.29
2306.00,93.28
2305.50,93.27
2305.00,93.26
2304.50,93.25
2304.00,93.22
2303.50,93.20
2303.00,93.21
2302.50,93.23
2302.00,93.22
2301.50,93.21
2301.00,93.25
2300.50,93.31
2300.00,93.35
2299.50,93.35
2299.00,93.34
2298.50,93.34
2298.00,93.34
2297.50,93.32
2297.00,93.29
2296.50,93.28
2296.00,93.27
2295.50,93.26
2295.00,93.24
2294.50,93.23
2294.00,93.23
2293.50,93.21
2293.00,93.21
2292.50,93.21
2292.00,93.21
2291.50,93.21
2291.00,93.21
2290.50,93.21
2290.00,93.21
2289.50,93.21
2289.00,93.20
2288.50,93.19
2288.00,93.18
2287.50,93.15
2287.00,93.14
2286.50,93.14
2286.00,93.16
2285.50,93.18
2285.00,93.19
2284.50,93.19
2284.00,93.19
2283.50,93.18
2283.00,93.18
2282.50,93.19
2282.00,93.21
2281.50,93.21
2281.00,93.19
2280.50,93.16
2280.00,93.14
2279.50,93.13
2279.00,93.13
2278.50,93.14
2278.00,93.15
2277.50,93.17
2277.00,93.19
2276.50,93.20
2276.00,93.18
2275.50,93.16
2275.00,93.15
2274.50,93.17
2274.00,93.18
2273.50,93.19
2273.00,93.19
2272.50,93.20
2272.00,93.19
2271.50,93.18
2271.00,93.16
2270.50,93.14
2270.00,93.13
2269.50,93.13
2269.00,93.13
2268.50,93.14
2268.00,93.14
2267.50,93.13
2267.00,93.14
2266.50,93.15
2266.00,93.16
2265.50,93.16
2265.00,93.15
2264.50,93.13
2264.00,93.12
2263.50,93.11
2263.00,93.11
2262.50,93.12
2262.00,93.14
2261.50,93.16
2261.00,93.17
2260.50,93.16
2260.00,93.13
2259.50,93.11
2259.00,93.10
2258.50,93.11
2258.00,93.11
2257.50,93.10
2257.00,93.11
2256.50,93.13
2256.00,93.16
2255.50,93.20
2255.00,93.22
2254.50,93.24
2254.00,93.26
2253.50,93.28
2253.00,93.29
2252.50,93.29
2252.00,93.26
2251.50,93.21
2251.00,93.17
2250.50,93.16
2250.00,93.17
2249.50,93.20
2249.00,93.23
2248.50,93.26
2248.00,93.27
2247.50,93.26
2247.00,93.22
2246.50,93.17
2246.00,93.14
2245.50,93.17
2245.00,93.22
2244.50,93.27
2244.00,93.28
2243.50,93.24
2243.00,93.18
2242.50,93.14
2242.00,93.12
2241.50,93.11
2241.00,93.12
2240.50,93.13
2240.00,93.12
2239.50,93.11
2239.00,93.11
2238.50,93.11
2238.00,93.11
2237.50,93.11
2237.00,93.13
2236.50,93.16
2236.00,93.19
2235.50,93.21
2235.00,93.24
2234.50,93.27
2234.00,93.31
2233.50,93.31
2233.00,93.30
2232.50,93.26
2232.00,93.21
2231.50,93.17
2231.00,93.18
2230.50,93.22
2230.00,93.27
2229.50,93.30
2229.00,93.29
2228.50,93.27
2228.00,93.24
2227.50,93.21
2227.00,93.20
2226.50,93.20
2226.00,93.20
2225.50,93.19
2225.00,93.19
2224.50,93.20
2224.00,93.20
2223.50,93.18
2223.00,93.16
2222.50,93.17
2222.00,93.22
2221.50,93.29
2221.00,93.32
2220.50,93.31
2220.00,93.29
2219.50,93.26
2219.00,93.25
2218.50,93.25
2218.00,93.25
2217.50,93.23
2217.00,93.19
2216.50,93.15
2216.00,93.13
2215.50,93.15
2215.00,93.18
2214.50,93.18
2214.00,93.16
2213.50,93.16
2213.00,93.17
2212.50,93.18
2212.00,93.17
2211.50,93.16
2211.00,93.16
2210.50,93.18
2210.00,93.22
2209.50,93.23
2209.00,93.23
2208.50,93.20
2208.00,93.17
2207.50,93.16
2207.00,93.15
2206.50,93.15
2206.00,93.14
2205.50,93.13
2205.00,93.12
2204.50,93.11
2204.00,93.12
2203.50,93.14
2203.00,93.17
2202.50,93.20
2202.00,93.20
2201.50,93.17
2201.00,93.15
2200.50,93.13
2200.00,93.10
2199.50,93.10
2199.00,93.14
2198.50,93.23
2198.00,93.32
2197.50,93.34
2197.00,93.32
2196.50,93.29
2196.00,93.27
2195.50,93.25
2195.00,93.22
2194.50,93.18
2194.00,93.16
2193.50,93.16
2193.00,93.18
2192.50,93.22
2192.00,93.24
2191.50,93.23
2191.00,93.18
2190.50,93.14
2190.00,93.13
2189.50,93.15
2189.00,93.19
2188.50,93.20
2188.00,93.19
2187.50,93.20
2187.00,93.24
2186.50,93.26
2186.00,93.25
2185.50,93.21
2185.00,93.20
2184.50,93.20
2184.00,93.21
2183.50,93.18
2183.00,93.15
2182.50,93.14
2182.00,93.16
2181.50,93.20
2181.00,93.26
2180.50,93.30
2180.00,93.31
2179.50,93.30
2179.00,93.28
2178.50,93.28
2178.00,93.30
2177.50,93.33
2177.00,93.34
2176.50,93.34
2176.00,93.31
2175.50,93.27
2175.00,93.22
2174.50,93.19
2174.00,93.18
2173.50,93.17
2173.00,93.19
2172.50,93.25
2172.00,93.33
2171.50,93.37
2171.00,93.36
2170.50,93.31
2170.00,93.24
2169.50,93.17
2169.00,93.13
2168.50,93.11
2168.00,93.12
2167.50,93.16
2167.00,93.19
2166.50,93.19
2166.00,93.16
2165.50,93.13
2165.00,93.14
2164.50,93.19
2164.00,93.23
2163.50,93.25
2163.00,93.25
2162.50,93.23
2162.00,93.20
2161.50,93.18
2161.00,93.20
2160.50,93.29
2160.00,93.41
2159.50,93.53
2159.00,93.59
2158.50,93.60
2158.00,93.59
2157.50,93.56
2157.00,93.52
2156.50,93.48
2156.00,93.46
2155.50,93.45
2155.00,93.42
2154.50,93.36
2154.00,93.28
2153.50,93.22
2153.00,93.19
2152.50,93.21
2152.00,93.24
2151.50,93.28
2151.00,93.28
2150.50,93.27
2150.00,93.26
2149.50,93.25
2149.00,93.24
2148.50,93.23
2148.00,93.19
2147.50,93.15
2147.00,93.10
2146.50,93.07
2146.00,93.06
2145.50,93.07
2145.00,93.10
2144.50,93.13
2144.00,93.15
2143.50,93.13
2143.00,93.09
2142.50,93.03
2142.00,92.98
2141.50,92.95
2141.00,92.93
2140.50,92.94
2140.00,92.99
2139.50,93.05
2139.00,93.10
2138.50,93.14
2138.00,93.14
2137.50,93.13
2137.00,93.10
2136.50,93.08
2136.00,93.08
2135.50,93.10
2135.00,93.15
2134.50,93.18
2134.00,93.16
2133.50,93.09
2133.00,92.99
2132.50,92.93
2132.00,92.93
2131.50,92.97
2131.00,93.00
2130.50,93.00
2130.00,92.98
2129.50,92.98
2129.00,92.99
2128.50,92.99
2128.00,92.97
2127.50,92.96
2127.00,92.98
2126.50,93.00
2126.00,93.01
2125.50,92.99
2125.00,92.93
2124.50,92.89
2124.00,92.88
2123.50,92.89
2123.00,92.91
2122.50,92.91
2122.00,92.90
2121.50,92.90
2121.00,92.90
2120.50,92.89
2120.00,92.88
2119.50,92.87
2119.00,92.86
2118.50,92.87
2118.00,92.87
2117.50,92.86
2117.00,92.83
2116.50,92.80
2116.00,92.78
2115.50,92.76
2115.00,92.73
2114.50,92.72
2114.00,92.71
2113.50,92.74
2113.00,92.77
2112.50,92.80
2112.00,92.83
2111.50,92.85
2111.00,92.86
2110.50,92.86
2110.00,92.85
2109.50,92.83
2109.00,92.81
2108.50,92.80
2108.00,92.78
2107.50,92.74
2107.00,92.72
2106.50,92.71
2106.00,92.73
2105.50,92.76
2105.00,92.77
2104.50,92.76
2104.00,92.75
2103.50,92.76
2103.00,92.77
2102.50,92.76
2102.00,92.74
2101.50,92.74
2101.00,92.75
2100.50,92.77
2100.00,92.77
2099.50,92.75
2099.00,92.73
2098.50,92.72
2098.00,92.72
2097.50,92.75
2097.00,92.79
2096.50,92.83
2096.00,92.86
2095.50,92.86
2095.00,92.87
2094.50,92.88
2094.00,92.89
2093.50,92.85
2093.00,92.78
2092.50,92.72
2092.00,92.71
2091.50,92.73
2091.00,92.76
2090.50,92.76
2090.00,92.74
2089.50,92.72
2089.00,92.71
2088.50,92.72
2088.00,92.72
2087.50,92.73
2087.00,92.75
2086.50,92.78
2086.00,92.80
2085.50,92.82
2085.00,92.81
2084.50,92.80
2084.00,92.78
2083.50,92.75
2083.00,92.70
2082.50,92.66
2082.00,92.64
2081.50,92.64
2081.00,92.65
2080.50,92.66
2080.00,92.66
2079.50,92.67
2079.00,92.69
2078.50,92.71
2078.00,92.72
2077.50,92.71
2077.00,92.67
2076.50,92.63
2076.00,92.61
2075.50,92.62
2075.00,92.66
2074.50,92.71
2074.00,92.75
2073.50,92.76
2073.00,92.75
2072.50,92.73
2072.00,92.72
2071.50,92.71
2071.00,92.70
2070.50,92.67
2070.00,92.63
2069.50,92.61
2069.00,92.60
2068.50,92.63
2068.00,92.66
2067.50,92.70
2067.00,92.73
2066.50,92.75
2066.00,92.73
2065.50,92.71
2065.00,92.70
2064.50,92.71
2064.00,92.72
2063.50,92.72
2063.00,92.69
2062.50,92.66
2062.00,92.64
2061.50,92.67
2061.00,92.72
2060.50,92.75
2060.00,92.74
2059.50,92.71
2059.00,92.69
2058.50,92.70
2058.00,92.72
2057.50,92.71
2057.00,92.69
2056.50,92.67
2056.00,92.67
2055.50,92.70
2055.00,92.75
2054.50,92.78
2054.00,92.77
2053.50,92.73
2053.00,92.67
2052.50,92.62
2052.00,92.58
2051.50,92.55
2051.00,92.54
2050.50,92.56
2050.00,92.62
2049.50,92.69
2049.00,92.73
2048.50,92.74
2048.00,92.74
2047.50,92.72
2047.00,92.70
2046.50,92.67
2046.00,92.63
2045.50,92.61
2045.00,92.61
2044.50,92.64
2044.00,92.68
2043.50,92.71
2043.00,92.73
2042.50,92.76
2042.00,92.80
2041.50,92.85
2041.00,92.87
2040.50,92.85
2040.00,92.82
2039.50,92.80
2039.00,92.78
2038.50,92.78
2038.00,92.79
2037.50,92.81
2037.00,92.85
2036.50,92.90
2036.00,92.95
2035.50,92.99
2035.00,92.98
2034.50,92.90
2034.00,92.78
2033.50,92.67
2033.00,92.61
2032.50,92.61
2032.00,92.63
2031.50,92.63
2031.00,92.61
2030.50,92.58
2030.00,92.57
2029.50,92.62
2029.00,92.72
2028.50,92.84
2028.00,92.94
2027.50,92.99
2027.00,93.01
2026.50,93.00
2026.00,92.98
2025.50,92.97
2025.00,92.96
2024.50,92.93
2024.00,92.86
2023.50,92.77
2023.00,92.70
2022.50,92.68
2022.00,92.66
2021.50,92.64
2021.00,92.63
2020.50,92.66
2020.00,92.72
2019.50,92.78
2019.00,92.81
2018.50,92.78
2018.00,92.73
2017.50,92.68
2017.00,92.67
2016.50,92.69
2016.00,92.69
2015.50,92.67
2015.00,92.66
2014.50,92.70
2014.00,92.75
2013.50,92.77
2013.00,92.74
2012.50,92.70
2012.00,92.67
2011.50,92.65
2011.00,92.64
2010.50,92.67
2010.00,92.68
2009.50,92.66
2009.00,92.61
2008.50,92.55
2008.00,92.52
2007.50,92.51
2007.00,92.52
2006.50,92.53
2006.00,92.56
2005.50,92.58
2005.00,92.57
2004.50,92.54
2004.00,92.53
2003.50,92.54
2003.00,92.54
2002.50,92.50
2002.00,92.43
2001.50,92.39
2001.00,92.40
2000.50,92.42
2000.00,92.42
1999.50,92.40
1999.00,92.40
1998.50,92.43
1998.00,92.47
1997.50,92.47
1997.00,92.43
1996.50,92.39
1996.00,92.36
1995.50,92.34
1995.00,92.32
1994.50,92.32
1994.00,92.33
1993.50,92.35
1993.00,92.36
1992.50,92.32
1992.00,92.26
1991.50,92.20
1991.00,92.19
1990.50,92.22
1990.00,92.29
1989.50,92.36
1989.00,92.39
1988.50,92.38
1988.00,92.34
1987.50,92.29
1987.00,92.23
1986.50,92.19
1986.00,92.21
1985.50,92.28
1985.00,92.36
1984.50,92.37
1984.00,92.30
1983.50,92.22
1983.00,92.21
1982.50,92.27
1982.00,92.39
1981.50,92.48
1981.00,92.53
1980.50,92.54
1980.00,92.54
1979.50,92.52
1979.00,92.51
1978.50,92.49
1978.00,92.46
1977.50,92.44
1977.00,92.44
1976.50,92.43
1976.00,92.41
1975.50,92.40
1975.00,92.43
1974.50,92.50
1974.00,92.57
1973.50,92.61
1973.00,92.59
1972.50,92.54
1972.00,92.48
1971.50,92.44
1971.00,92.42
1970.50,92.40
1970.00,92.35
1969.50,92.29
1969.00,92.26
1968.50,92.26
1968.00,92.25
1967.50,92.23
1967.00,92.19
1966.50,92.16
1966.00,92.13
1965.50,92.09
1965.00,92.04
1964.50,91.98
1964.00,91.92
1963.50,91.85
1963.00,91.79
1962.50,91.76
1962.00,91.75
1961.50,91.74
1961.00,91.72
1960.50,91.71
1960.00,91.69
1959.50,91.63
1959.00,91.55
1958.50,91.49
1958.00,91.48
1957.50,91.52
1957.00,91.57
1956.50,91.60
1956.00,91.60
1955.50,91.57
1955.00,91.52
1954.50,91.50
1954.00,91.50
1953.50,91.51
1953.00,91.50
1952.50,91.46
1952.00,91.42
1951.50,91.37
1951.00,91.33
1950.50,91.28
1950.00,91.22
1949.50,91.16
1949.00,91.10
1948.50,91.05
1948.00,91.00
1947.50,90.94
1947.00,90.90
1946.50,90.87
1946.00,90.84
1945.50,90.79
1945.00,90.73
1944.50,90.69
1944.00,90.67
1943.50,90.65
1943.00,90.60
1942.50,90.53
1942.00,90.49
1941.50,90.51
1941.00,90.56
1940.50,90.61
1940.00,90.65
1939.50,90.70
1939.00,90.76
1938.50,90.83
1938.00,90.91
1937.50,90.96
1937.00,90.97
1936.50,90.97
1936.00,90.96
1935.50,90.97
1935.00,91.00
1934.50,91.05
1934.00,91.11
1933.50,91.17
1933.00,91.25
1932.50,91.33
1932.00,91.39
1931.50,91.42
1931.00,91.44
1930.50,91.46
1930.00,91.48
1929.50,91.50
1929.00,91.52
1928.50,91.55
1928.00,91.59
1927.50,91.63
1927.00,91.64
1926.50,91.63
1926.00,91.62
1925.50,91.62
1925.00,91.64
1924.50,91.68
1924.00,91.73
1923.50,91.77
1923.00,91.80
1922.50,91.81
1922.00,91.78
1921.50,91.73
1921.00,91.70
1920.50,91.69
1920.00,91.72
1919.50,91.76
1919.00,91.79
1918.50,91.80
1918.00,91.79
1917.50,91.79
1917.00,91.79
1916.50,91.80
1916.00,91.81
1915.50,91.81
1915.00,91.81
1914.50,91.79
1914.00,91.78
1913.50,91.77
1913.00,91.76
1912.50,91.77
1912.00,91.78
1911.50,91.79
1911.00,91.80
1910.50,91.80
1910.00,91.80
1909.50,91.81
1909.00,91.82
1908.50,91.81
1908.00,91.79
1907.50,91.78
1907.00,91.78
1906.50,91.77
1906.00,91.75
1905.50,91.70
1905.00,91.65
1904.50,91.64
1904.00,91.65
1903.50,91.67
1903.00,91.68
1902.50,91.68
1902.00,91.67
1901.50,91.66
1901.00,91.67
1900.50,91.69
1900.00,91.72
1899.50,91.74
1899.00,91.76
1898.50,91.76
1898.00,91.76
1897.50,91.76
1897.00,91.75
1896.50,91.74
1896.00,91.73
1895.50,91.71
1895.00,91.67
1894.50,91.64
1894.00,91.64
1893.50,91.65
1893.00,91.67
1892.50,91.66
1892.00,91.64
1891.50,91.62
1891.00,91.59
1890.50,91.59
1890.00,91.60
1889.50,91.60
1889.00,91.59
1888.50,91.57
1888.00,91.55
1887.50,91.55
1887.00,91.55
1886.50,91.55
1886.00,91.54
1885.50,91.52
1885.00,91.49
1884.50,91.44
1884.00,91.40
1883.50,91.36
1883.00,91.33
1882.50,91.33
1882.00,91.33
1881.50,91.32
1881.00,91.29
1880.50,91.25
1880.00,91.22
1879.50,91.19
1879.00,91.17
1878.50,91.14
1878.00,91.10
1877.50,91.05
1877.00,91.00
1876.50,90.97
1876.00,90.95
1875.50,90.93
1875.00,90.91
1874.50,90.89
1874.00,90.88
1873.50,90.88
1873.00,90.87
1872.50,90.85
1872.00,90.81
1871.50,90.78
1871.00,90.78
1870.50,90.80
1870.00,90.83
1869.50,90.87
1869.00,90.88
1868.50,90.88
1868.00,90.86
1867.50,90.84
1867.00,90.83
1866.50,90.83
1866.00,90.82
1865.50,90.82
1865.00,90.79
1864.50,90.75
1864.00,90.68
1863.50,90.61
1863.00,90.54
1862.50,90.48
1862.00,90.42
1861.50,90.38
1861.00,90.34
1860.50,90.31
1860.00,90.26
1859.50,90.20
1859.00,90.14
1858.50,90.10
1858.00,90.07
1857.50,90.07
1857.00,90.09
1856.50,90.11
1856.00,90.15
1855.50,90.18
1855.00,90.22
1854.50,90.26
1854.00,90.33
1853.50,90.40
1853.00,90.46
1852.50,90.52
1852.00,90.55
1851.50,90.60
1851.00,90.65
1850.50,90.72
1850.00,90.79
1849.50,90.85
1849.00,90.90
1848.50,90.94
1848.00,90.98
1847.50,91.01
1847.00,91.04
1846.50,91.06
1846.00,91.08
1845.50,91.11
1845.00,91.12
1844.50,91.14
1844.00,91.17
1843.50,91.19
1843.00,91.22
1842.50,91.24
1842.00,91.26
1841.50,91.26
1841.00,91.26
1840.50,91.26
1840.00,91.26
1839.50,91.27
1839.00,91.28
1838.50,91.28
1838.00,91.29
1837.50,91.30
1837.00,91.31
1836.50,91.31
1836.00,91.30
1835.50,91.29
1835.00,91.27
1834.50,91.26
1834.00,91.26
1833.50,91.27
1833.00,91.29
1832.50,91.30
1832.00,91.31
1831.50,91.30
1831.00,91.28
1830.50,91.26
1830.00,91.24
1829.50,91.22
1829.00,91.21
1828.50,91.19
1828.00,91.19
1827.50,91.19
1827.00,91.19
1826.50,91.17
1826.00,91.15
1825.50,91.14
1825.00,91.13
1824.50,91.12
1824.00,91.11
1823.50,91.09
1823.00,91.06
1822.50,91.04
1822.00,91.03
1821.50,91.04
1821.00,91.04
1820.50,91.04
1820.00,91.03
1819.50,91.04
1819.00,91.04
1818.50,91.02
1818.00,91.00
1817.50,90.99
1817.00,90.98
1816.50,90.97
1816.00,90.96
1815.50,90.94
1815.00,90.92
1814.50,90.90
1814.00,90.89
1813.50,90.87
1813.00,90.85
1812.50,90.83
1812.00,90.81
1811.50,90.80
1811.00,90.76
1810.50,90.71
1810.00,90.65
1809.50,90.59
1809.00,90.55
1808.50,90.51
1808.00,90.47
1807.50,90.43
1807.00,90.39
1806.50,90.34
1806.00,90.28
1805.50,90.23
1805.00,90.18
1804.50,90.15
1804.00,90.11
1803.50,90.08
1803.00,90.05
1802.50,90.05
1802.00,90.07
1801.50,90.11
1801.00,90.14
1800.50,90.17
1800.00,90.21
1799.50,90.25
1799.00,90.29
1798.50,90.33
1798.00,90.36
1797.50,90.40
1797.00,90.44
1796.50,90.49
1796.00,90.53
1795.50,90.59
1795.00,90.63
1794.50,90.68
1794.00,90.72
1793.50,90.75
1793.00,90.78
1792.50,90.80
1792.00,90.82
1791.50,90.85
1791.00,90.88
1790.50,90.89
1790.00,90.88
1789.50,90.87
1789.00,90.88
1788.50,90.89
1788.00,90.90
1787.50,90.92
1787.00,90.94
1786.50,90.96
1786.00,90.97
1785.50,90.98
1785.00,90.97
1784.50,90.96
1784.00,90.95
1783.50,90.96
1783.00,90.97
1782.50,90.98
1782.00,90.99
1781.50,90.99
1781.00,90.99
1780.50,91.00
1780.00,91.01
1779.50,91.02
1779.00,91.02
1778.50,91.00
1778.00,90.98
1777.50,90.97
1777.00,90.96
1776.50,90.96
1776.00,90.95
1775.50,90.95
1775.00,90.95
1774.50,90.95
1774.00,90.95
1773.50,90.94
1773.00,90.95
1772.50,91.01
1772.00,91.06
1771.50,91.10
1771.00,91.10
1770.50,91.09
1770.00,91.08
1769.50,91.07
1769.00,91.06
1768.50,91.05
1768.00,91.05
1767.50,91.05
1767.00,91.05
1766.50,91.07
1766.00,91.09
1765.50,91.09
1765.00,91.09
1764.50,91.07
1764.00,91.06
1763.50,91.07
1763.00,91.09
1762.50,91.10
1762.00,91.11
1761.50,91.09
1761.00,91.07
1760.50,91.06
1760.00,91.06
1759.50,91.07
1759.00,91.08
1758.50,91.08
1758.00,91.10
1757.50,91.12
1757.00,91.13
1756.50,91.14
1756.00,91.15
1755.50,91.15
1755.00,91.14
1754.50,91.12
1754.00,91.11
1753.50,91.11
1753.00,91.12
1752.50,91.12
1752.00,91.10
1751.50,91.09
1751.00,91.09
1750.50,91.10
1750.00,91.10
1749.50,91.10
1749.00,91.08
1748.50,91.07
1748.00,91.06
1747.50,91.04
1747.00,91.00
1746.50,90.96
1746.00,90.92
1745.50,90.89
1745.00,90.86
1744.50,90.85
1744.00,90.82
1743.50,90.80
1743.00,90.76
1742.50,90.73
1742.00,90.71
1741.50,90.67
1741.00,90.63
1740.50,90.58
1740.00,90.56
1739.50,90.56
1739.00,90.56
1738.50,90.55
1738.00,90.52
1737.50,90.47
1737.00,90.42
1736.50,90.40
1736.00,90.39
1735.50,90.39
1735.00,90.38
1734.50,90.40
1734.00,90.44
1733.50,90.48
1733.00,90.49
1732.50,90.50
1732.00,90.52
1731.50,90.54
1731.00,90.57
1730.50,90.61
1730.00,90.64
1729.50,90.66
1729.00,90.67
1728.50,90.67
1728.00,90.68
1727.50,90.69
1727.00,90.70
1726.50,90.72
1726.00,90.74
1725.50,90.75
1725.00,90.77
1724.50,90.79
1724.00,90.82
1723.50,90.84
1723.00,90.85
1722.50,90.85
1722.00,90.86
1721.50,90.87
1721.00,90.87
1720.50,90.89
1720.00,90.90
1719.50,90.92
1719.00,90.94
1718.50,90.97
1718.00,90.99
1717.50,90.98
1717.00,90.96
1716.50,90.97
1716.00,90.99
1715.50,91.01
1715.00,91.02
1714.50,91.02
1714.00,91.01
1713.50,90.99
1713.00,90.96
1712.50,90.95
1712.00,90.95
1711.50,90.95
1711.00,90.95
1710.50,90.96
1710.00,90.95
1709.50,90.94
1709.00,90.93
1708.50,90.92
1708.00,90.93
1707.50,90.94
1707.00,90.95
1706.50,90.95
1706.00,90.95
1705.50,90.95
1705.00,90.95
1704.50,90.96
1704.00,90.96
1703.50,90.96
1703.00,90.94
1702.50,90.94
1702.00,90.94
1701.50,90.94
1701.00,90.91
1700.50,90.90
1700.00,90.91
1699.50,90.89
1699.00,90.89
1698.50,90.90
1698.00,90.92
1697.50,90.93
1697.00,90.94
1696.50,90.93
1696.00,90.92
1695.50,90.92
1695.00,90.90
1694.50,90.88
1694.00,90.87
1693.50,90.87
1693.00,90.87
1692.50,90.87
1692.00,90.88
1691.50,90.88
1691.00,90.88
1690.50,90.88
1690.00,90.88
1689.50,90.90
1689.00,90.91
1688.50,90.92
1688.00,90.92
1687.50,90.93
1687.00,90.92
1686.50,90.92
1686.00,90.93
1685.50,90.94
1685.00,90.92
1684.50,90.91
1684.00,90.92
1683.50,90.94
1683.00,90.93
1682.50,90.92
1682.00,90.91
1681.50,90.91
1681.00,90.90
1680.50,90.87
1680.00,90.85
1679.50,90.82
1679.00,90.79
1678.50,90.75
1678.00,90.74
1677.50,90.74
1677.00,90.76
1676.50,90.78
1676.00,90.79
1675.50,90.79
1675.00,90.79
1674.50,90.78
1674.00,90.77
1673.50,90.79
1673.00,90.81
1672.50,90.82
1672.00,90.84
1671.50,90.86
1671.00,90.89
1670.50,90.90
1670.00,90.89
1669.50,90.88
1669.00,90.87
1668.50,90.86
1668.00,90.86
1667.50,90.86
1667.00,90.84
1666.50,90.82
1666.00,90.80
1665.50,90.79
1665.00,90.78
1664.50,90.78
1664.00,90.77
1663.50,90.75
1663.00,90.74
1662.50,90.74
1662.00,90.73
1661.50,90.72
1661.00,90.72
1660.50,90.71
1660.00,90.71
1659.50,90.71
1659.00,90.71
1658.50,90.72
1658.00,90.71
1657.50,90.71
1657.00,90.70
1656.50,90.69
1656.00,90.68
1655.50,90.65
1655.00,90.63
1654.50,90.64
1654.00,90.66
1653.50,90.66
1653.00,90.66
1652.50,90.67
1652.00,90.67
1651.50,90.69
1651.00,90.72
1650.50,90.74
1650.00,90.73
1649.50,90.72
1649.00,90.70
1648.50,90.70
1648.00,90.74
1647.50,90.78
1647.00,90.79
1646.50,90.77
1646.00,90.75
1645.50,90.72
1645.00,90.72
1644.50,90.73
1644.00,90.74
1643.50,90.74
1643.00,90.74
1642.50,90.72
1642.00,90.70
1641.50,90.68
1641.00,90.66
1640.50,90.65
1640.00,90.64
1639.50,90.64
1639.00,90.65
1638.50,90.66
1638.00,90.66
1637.50,90.66
1637.00,90.65
1636.50,90.64
1636.00,90.62
1635.50,90.60
1635.00,90.56
1634.50,90.52
1634.00,90.48
1633.50,90.44
1633.00,90.39
1632.50,90.35
1632.00,90.30
1631.50,90.26
1631.00,90.21
1630.50,90.15
1630.00,90.09
1629.50,90.04
1629.00,90.00
1628.50,89.95
1628.00,89.89
1627.50,89.83
1627.00,89.78
1626.50,89.72
1626.00,89.67
1625.50,89.62
1625.00,89.59
1624.50,89.55
1624.00,89.52
1623.50,89.50
1623.00,89.50
1622.50,89.51
1622.00,89.52
1621.50,89.53
1621.00,89.55
1620.50,89.57
1620.00,89.60
1619.50,89.62
1619.00,89.64
1618.50,89.66
1618.00,89.65
1617.50,89.64
1617.00,89.65
1616.50,89.69
1616.00,89.71
1615.50,89.70
1615.00,89.67
1614.50,89.62
1614.00,89.55
1613.50,89.48
1613.00,89.40
1612.50,89.32
1612.00,89.23
1611.50,89.12
1611.00,88.96
1610.50,88.76
1610.00,88.49
1609.50,88.13
1609.00,87.66
1608.50,87.08
1608.00,86.34
1607.50,85.42
1607.00,84.35
1606.50,83.21
1606.00,82.15
1605.50,81.29
1605.00,80.75
1604.50,80.61
1604.00,80.85
1603.50,81.37
1603.00,82.06
1602.50,82.81
1602.00,83.56
1601.50,84.27
1601.00,84.93
1600.50,85.52
1600.00,86.02
1599.50,86.44
1599.00,86.78
1598.50,87.06
1598.00,87.30
1597.50,87.50
1597.00,87.68
1596.50,87.83
1596.00,87.97
1595.50,88.09
1595.00,88.22
1594.50,88.33
1594.00,88.43
1593.50,88.51
1593.00,88.58
1592.50,88.63
1592.00,88.68
1591.50,88.72
1591.00,88.75
1590.50,88.77
1590.00,88.78
1589.50,88.79
1589.00,88.78
1588.50,88.79
1588.00,88.79
1587.50,88.80
1587.00,88.81
1586.50,88.81
1586.00,88.81
1585.50,88.81
1585.00,88.83
1584.50,88.86
1584.00,88.89
1583.50,88.92
1583.00,88.94
1582.50,88.95
1582.00,88.96
1581.50,88.97
1581.00,88.99
1580.50,88.99
1580.00,88.97
1579.50,88.95
1579.00,88.94
1578.50,88.94
1578.00,88.93
1577.50,88.91
1577.00,88.87
1576.50,88.81
1576.00,88.78
1575.50,88.76
1575.00,88.77
1574.50,88.78
1574.00,88.77
1573.50,88.76
1573.00,88.74
1572.50,88.74
1572.00,88.74
1571.50,88.74
1571.00,88.76
1570.50,88.78
1570.00,88.82
1569.50,88.86
1569.00,88.88
1568.50,88.88
1568.00,88.88
1567.50,88.90
1567.00,88.93
1566.50,88.96
1566.00,89.00
1565.50,89.04
1565.00,89.08
1564.50,89.12
1564.00,89.16
1563.50,89.20
1563.00,89.23
1562.50,89.26
1562.00,89.29
1561.50,89.32
1561.00,89.31
1560.50,89.27
1560.00,89.24
1559.50,89.28
1559.00,89.35
1558.50,89.42
1558.00,89.48
1557.50,89.48
1557.00,89.46
1556.50,89.44
1556.00,89.44
1555.50,89.43
1555.00,89.41
1554.50,89.38
1554.00,89.36
1553.50,89.36
1553.00,89.35
1552.50,89.34
1552.00,89.34
1551.50,89.35
1551.00,89.36
1550.50,89.36
1550.00,89.37
1549.50,89.38
1549.00,89.37
1548.50,89.36
1548.00,89.35
1547.50,89.34
1547.00,89.32
1546.50,89.30
1546.00,89.28
1545.50,89.28
1545.00,89.27
1544.50,89.27
1544.00,89.27
1543.50,89.29
1543.00,89.28
1542.50,89.25
1542.00,89.21
1541.50,89.17
1541.00,89.14
1540.50,89.11
1540.00,89.11
1539.50,89.13
1539.00,89.10
1538.50,89.05
1538.00,89.02
1537.50,89.01
1537.00,88.99
1536.50,88.96
1536.00,88.93
1535.50,88.90
1535.00,88.88
1534.50,88.87
1534.00,88.89
1533.50,88.93
1533.00,88.94
1532.50,88.92
1532.00,88.91
1531.50,88.89
1531.00,88.85
1530.50,88.81
1530.00,88.78
1529.50,88.75
1529.00,88.71
1528.50,88.67
1528.00,88.63
1527.50,88.58
1527.00,88.50
1526.50,88.38
1526.00,88.21
1525.50,88.01
1525.00,87.83
1524.50,87.69
1524.00,87.62
1523.50,87.62
1523.00,87.67
1522.50,87.76
1522.00,87.88
1521.50,88.05
1521.00,88.22
1520.50,88.33
1520.00,88.38
1519.50,88.41
1519.00,88.43
1518.50,88.44
1518.00,88.47
1517.50,88.52
1517.00,88.56
1516.50,88.57
1516.00,88.55
1515.50,88.52
1515.00,88.50
1514.50,88.46
1514.00,88.44
1513.50,88.43
1513.00,88.43
1512.50,88.42
1512.00,88.40
1511.50,88.38
1511.00,88.35
1510.50,88.30
1510.00,88.26
1509.50,88.24
1509.00,88.21
1508.50,88.16
1508.00,88.08
1507.50,87.99
1507.00,87.90
1506.50,87.78
1506.00,87.61
1505.50,87.44
1505.00,87.28
1504.50,87.09
1504.00,86.89
1503.50,86.66
1503.00,86.36
1502.50,85.98
1502.00,85.53
1501.50,85.03
1501.00,84.47
1500.50,83.81
1500.00,82.96
1499.50,81.70
1499.00,79.82
1498.50,77.53
1498.00,75.22
1497.50,72.79
1497.00,69.73
1496.50,66.04
1496.00,63.12
1495.50,62.17
1495.00,62.90
1494.50,64.66
1494.00,67.05
1493.50,69.63
1493.00,72.01
1492.50,74.01
1492.00,75.68
1491.50,77.10
1491.00,78.39
1490.50,79.58
1490.00,80.54
1489.50,81.19
1489.00,81.61
1488.50,81.98
1488.00,82.38
1487.50,82.83
1487.00,83.26
1486.50,83.63
1486.00,83.89
1485.50,84.09
1485.00,84.25
1484.50,84.39
1484.00,84.50
1483.50,84.59
1483.00,84.66
1482.50,84.71
1482.00,84.74
1481.50,84.75
1481.00,84.75
1480.50,84.74
1480.00,84.73
1479.50,84.69
1479.00,84.64
1478.50,84.59
1478.00,84.53
1477.50,84.46
1477.00,84.38
1476.50,84.30
1476.00,84.22
1475.50,84.12
1475.00,84.01
1474.50,83.90
1474.00,83.78
1473.50,83.64
1473.00,83.50
1472.50,83.37
1472.00,83.23
1471.50,83.08
1471.00,82.92
1470.50,82.77
1470.00,82.61
1469.50,82.44
1469.00,82.28
1468.50,82.12
1468.00,81.95
1467.50,81.78
1467.00,81.61
1466.50,81.45
1466.00,81.30
1465.50,81.14
1465.00,80.98
1464.50,80.83
1464.00,80.71
1463.50,80.60
1463.00,80.50
1462.50,80.40
1462.00,80.31
1461.50,80.23
1461.00,80.16
1460.50,80.10
1460.00,80.06
1459.50,80.03
1459.00,80.04
1458.50,80.07
1458.00,80.10
1457.50,80.15
1457.00,80.24
1456.50,80.37
1456.00,80.46
1455.50,80.53
1455.00,80.61
1454.50,80.70
1454.00,80.80
1453.50,80.91
1453.00,81.03
1452.50,81.17
1452.00,81.32
1451.50,81.46
1451.00,81.60
1450.50,81.73
1450.00,81.86
1449.50,81.98
1449.00,82.12
1448.50,82.29
1448.00,82.46
1447.50,82.59
1447.00,82.70
1446.50,82.81
1446.00,82.94
1445.50,83.07
1445.00,83.21
1444.50,83.35
1444.00,83.50
1443.50,83.65
1443.00,83.82
1442.50,83.99
1442.00,84.16
1441.50,84.33
1441.00,84.50
1440.50,84.66
1440.00,84.80
1439.50,84.93
1439.00,85.06
1438.50,85.19
1438.00,85.31
1437.50,85.44
1437.00,85.59
1436.50,85.75
1436.00,85.84
1435.50,85.88
1435.00,85.91
1434.50,85.94
1434.00,85.97
1433.50,86.00
1433.00,86.04
1432.50,86.08
1432.00,86.11
1431.50,86.14
1431.00,86.16
1430.50,86.20
1430.00,86.24
1429.50,86.27
1429.00,86.28
1428.50,86.29
1428.00,86.30
1427.50,86.31
1427.00,86.33
1426.50,86.35
1426.00,86.38
1425.50,86.41
1425.00,86.44
1424.50,86.49
1424.00,86.53
1423.50,86.57
1423.00,86.62
1422.50,86.66
1422.00,86.70
1421.50,86.73
1421.00,86.76
1420.50,86.79
1420.00,86.83
1419.50,86.88
1419.00,86.92
1418.50,86.95
1418.00,86.96
1417.50,86.98
1417.00,86.99
1416.50,87.00
1416.00,87.01
1415.50,87.04
1415.00,87.07
1414.50,87.09
1414.00,87.11
1413.50,87.13
1413.00,87.15
1412.50,87.17
1412.00,87.19
1411.50,87.21
1411.00,87.23
1410.50,87.24
1410.00,87.24
1409.50,87.23
1409.00,87.24
1408.50,87.26
1408.00,87.27
1407.50,87.28
1407.00,87.29
1406.50,87.30
1406.00,87.32
1405.50,87.34
1405.00,87.36
1404.50,87.38
1404.00,87.38
1403.50,87.38
1403.00,87.39
1402.50,87.41
1402.00,87.41
1401.50,87.41
1401.00,87.40
1400.50,87.40
1400.00,87.40
1399.50,87.40
1399.00,87.40
1398.50,87.41
1398.00,87.42
1397.50,87.42
1397.00,87.41
1396.50,87.40
1396.00,87.39
1395.50,87.38
1395.00,87.39
1394.50,87.39
1394.00,87.37
1393.50,87.35
1393.00,87.32
1392.50,87.29
1392.00,87.25
1391.50,87.21
1391.00,87.18
1390.50,87.14
1390.00,87.10
1389.50,87.06
1389.00,87.02
1388.50,86.98
1388.00,86.94
1387.50,86.89
1387.00,86.82
1386.50,86.74
1386.00,86.66
1385.50,86.57
1385.00,86.48
1384.50,86.38
1384.00,86.26
1383.50,86.11
1383.00,85.93
1382.50,85.73
1382.00,85.51
1381.50,85.26
1381.00,85.00
1380.50,84.73
1380.00,84.50
1379.50,84.34
1379.00,84.30
1378.50,84.37
1378.00,84.53
1377.50,84.75
1377.00,85.00
1376.50,85.26
1376.00,85.51
1375.50,85.76
1375.00,86.00
1374.50,86.22
1374.00,86.40
1373.50,86.55
1373.00,86.68
1372.50,86.78
1372.00,86.87
1371.50,86.94
1371.00,87.00
1370.50,87.04
1370.00,87.09
1369.50,87.14
1369.00,87.18
1368.50,87.23
1368.00,87.27
1367.50,87.31
1367.00,87.35
1366.50,87.39
1366.00,87.41
1365.50,87.43
1365.00,87.45
1364.50,87.47
1364.00,87.49
1363.50,87.51
1363.00,87.55
1362.50,87.57
1362.00,87.58
1361.50,87.60
1361.00,87.61
1360.50,87.61
1360.00,87.61
1359.50,87.60
1359.00,87.62
1358.50,87.64
1358.00,87.66
1357.50,87.66
1357.00,87.67
1356.50,87.67
1356.00,87.68
1355.50,87.70
1355.00,87.72
1354.50,87.74
1354.00,87.76
1353.50,87.76
1353.00,87.77
1352.50,87.78
1352.00,87.78
1351.50,87.78
1351.00,87.78
1350.50,87.78
1350.00,87.79
1349.50,87.80
1349.00,87.80
1348.50,87.80
1348.00,87.80
1347.50,87.81
1347.00,87.82
1346.50,87.83
1346.00,87.84
1345.50,87.85
1345.00,87.86
1344.50,87.87
1344.00,87.86
1343.50,87.85
1343.00,87.85
1342.50,87.85
1342.00,87.85
1341.50,87.86
1341.00,87.86
1340.50,87.88
1340.00,87.89
1339.50,87.90
1339.00,87.90
1338.50,87.89
1338.00,87.87
1337.50,87.86
1337.00,87.84
1336.50,87.82
1336.00,87.79
1335.50,87.76
1335.00,87.72
1334.50,87.70
1334.00,87.68
1333.50,87.66
1333.00,87.65
1332.50,87.65
1332.00,87.64
1331.50,87.63
1331.00,87.62
1330.50,87.63
1330.00,87.63
1329.50,87.64
1329.00,87.64
1328.50,87.63
1328.00,87.62
1327.50,87.61
1327.00,87.60
1326.50,87.58
1326.00,87.55
1325.50,87.53
1325.00,87.50
1324.50,87.48
1324.00,87.46
1323.50,87.44
1323.00,87.42
1322.50,87.41
1322.00,87.39
1321.50,87.35
1321.00,87.32
1320.50,87.29
1320.00,87.25
1319.50,87.20
1319.00,87.14
1318.50,87.08
1318.00,87.02
1317.50,86.97
1317.00,86.90
1316.50,86.83
1316.00,86.76
1315.50,86.68
1315.00,86.60
1314.50,86.53
1314.00,86.47
1313.50,86.43
1313.00,86.40
1312.50,86.38
1312.00,86.37
1311.50,86.35
1311.00,86.33
1310.50,86.32
1310.00,86.32
1309.50,86.32
1309.00,86.34
1308.50,86.36
1308.00,86.38
1307.50,86.40
1307.00,86.43
1306.50,86.46
1306.00,86.48
1305.50,86.50
1305.00,86.51
1304.50,86.52
1304.00,86.53
1303.50,86.55
1303.00,86.57
1302.50,86.59
1302.00,86.60
1301.50,86.61
1301.00,86.62
1300.50,86.63
1300.00,86.64
1299.50,86.63
1299.00,86.64
1298.50,86.65
1298.00,86.68
1297.50,86.70
1297.00,86.71
1296.50,86.72
1296.00,86.73
1295.50,86.73
1295.00,86.74
1294.50,86.75
1294.00,86.75
1293.50,86.76
1293.00,86.77
1292.50,86.78
1292.00,86.78
1291.50,86.77
1291.00,86.77
1290.50,86.78
1290.00,86.78
1289.50,86.78
1289.00,86.76
1288.50,86.75
1288.00,86.73
1287.50,86.70
1287.00,86.68
1286.50,86.66
1286.00,86.65
1285.50,86.63
1285.00,86.61
1284.50,86.58
1284.00,86.56
1283.50,86.55
1283.00,86.54
1282.50,86.52
1282.00,86.50
1281.50,86.47
1281.00,86.43
1280.50,86.39
1280.00,86.35
1279.50,86.31
1279.00,86.27
1278.50,86.22
1278.00,86.17
1277.50,86.10
1277.00,86.05
1276.50,86.00
1276.00,85.96
1275.50,85.90
1275.00,85.85
1274.50,85.80
1274.00,85.75
1273.50,85.70
1273.00,85.65
1272.50,85.61
1272.00,85.57
1271.50,85.52
1271.00,85.46
1270.50,85.41
1270.00,85.36
1269.50,85.31
1269.00,85.26
1268.50,85.21
1268.00,85.16
1267.50,85.09
1267.00,85.03
1266.50,84.98
1266.00,84.93
1265.50,84.89
1265.00,84.85
1264.50,84.81
1264.00,84.79
1263.50,84.75
1263.00,84.71
1262.50,84.66
1262.00,84.62
1261.50,84.58
1261.00,84.55
1260.50,84.52
1260.00,84.48
1259.50,84.44
1259.00,84.39
1258.50,84.33
1258.00,84.29
1257.50,84.26
1257.00,84.24
1256.50,84.22
1256.00,84.22
1255.50,84.20
1255.00,84.17
1254.50,84.12
1254.00,84.07
1253.50,84.04
1253.00,84.02
1252.50,84.00
1252.00,83.99
1251.50,83.99
1251.00,83.98
1250.50,83.96
1250.00,83.95
1249.50,83.94
1249.00,83.93
1248.50,83.93
1248.00,83.95
1247.50,83.99
1247.00,84.03
1246.50,84.09
1246.00,84.14
1245.50,84.20
1245.00,84.26
1244.50,84.32
1244.00,84.38
1243.50,84.44
1243.00,84.48
1242.50,84.52
1242.00,84.58
1241.50,84.65
1241.00,84.72
1240.50,84.78
1240.00,84.83
1239.50,84.88
1239.00,84.93
1238.50,84.97
1238.00,85.03
1237.50,85.08
1237.00,85.15
1236.50,85.21
1236.00,85.28
1235.50,85.33
1235.00,85.38
1234.50,85.44
1234.00,85.50
1233.50,85.56
1233.00,85.61
1232.50,85.65
1232.00,85.68
1231.50,85.72
1231.00,85.78
1230.50,85.85
1230.00,85.92
1229.50,85.98
1229.00,86.02
1228.50,86.08
1228.00,86.14
1227.50,86.20
1227.00,86.24
1226.50,86.28
1226.00,86.32
1225.50,86.35
1225.00,86.39
1224.50,86.41
1224.00,86.43
1223.50,86.46
1223.00,86.50
1222.50,86.54
1222.00,86.56
1221.50,86.59
1221.00,86.61
1220.50,86.62
1220.00,86.63
1219.50,86.62
1219.00,86.62
1218.50,86.63
1218.00,86.63
1217.50,86.62
1217.00,86.59
1216.50,86.55
1216.00,86.52
1215.50,86.48
1215.00,86.43
1214.50,86.38
1214.00,86.31
1213.50,86.22
1213.00,86.10
1212.50,85.96
1212.00,85.80
1211.50,85.66
1211.00,85.55
1210.50,85.49
1210.00,85.47
1209.50,85.49
1209.00,85.55
1208.50,85.63
1208.00,85.71
1207.50,85.78
1207.00,85.84
1206.50,85.89
1206.00,85.94
1205.50,85.98
1205.00,86.01
1204.50,86.03
1204.00,86.04
1203.50,86.03
1203.00,86.02
1202.50,86.01
1202.00,85.99
1201.50,85.97
1201.00,85.96
1200.50,85.97
1200.00,85.96
1199.50,85.94
1199.00,85.91
1198.50,85.88
1198.00,85.87
1197.50,85.86
1197.00,85.85
1196.50,85.83
1196.00,85.81
1195.50,85.79
1195.00,85.77
1194.50,85.77
1194.00,85.77
1193.50,85.76
1193.00,85.76
1192.50,85.74
1192.00,85.73
1191.50,85.72
1191.00,85.71
1190.50,85.71
1190.00,85.69
1189.50,85.68
1189.00,85.65
1188.50,85.64
1188.00,85.62
1187.50,85.60
1187.00,85.56
1186.50,85.53
1186.00,85.51
1185.50,85.49
1185.00,85.48
1184.50,85.45
1184.00,85.39
1183.50,85.29
1183.00,85.16
1182.50,84.99
1182.00,84.80
1181.50,84.57
1181.00,84.31
1180.50,84.03
1180.00,83.75
1179.50,83.52
1179.00,83.38
1178.50,83.37
1178.00,83.48
1177.50,83.66
1177.00,83.89
1176.50,84.12
1176.00,84.33
1175.50,84.53
1175.00,84.70
1174.50,84.85
1174.00,84.96
1173.50,85.04
1173.00,85.10
1172.50,85.15
1172.00,85.20
1171.50,85.26
1171.00,85.30
1170.50,85.33
1170.00,85.34
1169.50,85.33
1169.00,85.34
1168.50,85.34
1168.00,85.35
1167.50,85.35
1167.00,85.34
1166.50,85.31
1166.00,85.29
1165.50,85.27
1165.00,85.25
1164.50,85.24
1164.00,85.21
1163.50,85.17
1163.00,85.13
1162.50,85.09
1162.00,85.05
1161.50,85.02
1161.00,85.00
1160.50,84.98
1160.00,84.95
1159.50,84.91
1159.00,84.87
1158.50,84.82
1158.00,84.78
1157.50,84.73
1157.00,84.68
1156.50,84.64
1156.00,84.63
1155.50,84.65
1155.00,84.69
1154.50,84.73
1154.00,84.75
1153.50,84.77
1153.00,84.77
1152.50,84.78
1152.00,84.78
1151.50,84.80
1151.00,84.83
1150.50,84.86
1150.00,84.89
1149.50,84.90
1149.00,84.91
1148.50,84.93
1148.00,84.93
1147.50,84.94
1147.00,84.95
1146.50,84.97
1146.00,85.01
1145.50,85.04
1145.00,85.07
1144.50,85.09
1144.00,85.10
1143.50,85.09
1143.00,85.07
1142.50,85.04
1142.00,85.03
1141.50,85.03
1141.00,85.06
1140.50,85.09
1140.00,85.10
1139.50,85.12
1139.00,85.14
1138.50,85.18
1138.00,85.20
1137.50,85.21
1137.00,85.21
1136.50,85.20
1136.00,85.18
1135.50,85.15
1135.00,85.13
1134.50,85.14
1134.00,85.17
1133.50,85.20
1133.00,85.21
1132.50,85.22
1132.00,85.22
1131.50,85.22
1131.00,85.21
1130.50,85.21
1130.00,85.21
1129.50,85.24
1129.00,85.29
1128.50,85.33
1128.00,85.34
1127.50,85.33
1127.00,85.30
1126.50,85.28
1126.00,85.28
1125.50,85.28
1125.00,85.29
1124.50,85.33
1124.00,85.37
1123.50,85.41
1123.00,85.42
1122.50,85.42
1122.00,85.41
1121.50,85.41
1121.00,85.42
1120.50,85.45
1120.00,85.49
1119.50,85.52
1119.00,85.54
1118.50,85.55
1118.00,85.54
1117.50,85.53
1117.00,85.52
1116.50,85.50
1116.00,85.47
1115.50,85.43
1115.00,85.40
1114.50,85.36
1114.00,85.34
1113.50,85.32
1113.00,85.31
1112.50,85.28
1112.00,85.23
1111.50,85.15
1111.00,85.06
1110.50,84.96
1110.00,84.86
1109.50,84.74
1109.00,84.60
1108.50,84.45
1108.00,84.33
1107.50,84.24
1107.00,84.20
1106.50,84.21
1106.00,84.27
1105.50,84.35
1105.00,84.43
1104.50,84.51
1104.00,84.59
1103.50,84.66
1103.00,84.70
1102.50,84.73
1102.00,84.76
1101.50,84.81
1101.00,84.86
1100.50,84.91
1100.00,84.96
1099.50,84.99
1099.00,85.01
1098.50,85.05
1098.00,85.10
1097.50,85.15
1097.00,85.19
1096.50,85.20
1096.00,85.20
1095.50,85.18
1095.00,85.17
1094.50,85.17
1094.00,85.16
1093.50,85.15
1093.00,85.11
1092.50,85.06
1092.00,84.99
1091.50,84.91
1091.00,84.82
1090.50,84.72
1090.00,84.63
1089.50,84.53
1089.00,84.40
1088.50,84.24
1088.00,84.02
1087.50,83.76
1087.00,83.45
1086.50,83.07
1086.00,82.61
1085.50,82.07
1085.00,81.47
1084.50,80.82
1084.00,80.10
1083.50,79.34
1083.00,78.59
1082.50,77.95
1082.00,77.51
1081.50,77.30
1081.00,77.31
1080.50,77.54
1080.00,77.93
1079.50,78.44
1079.00,78.98
1078.50,79.53
1078.00,80.04
1077.50,80.50
1077.00,80.90
1076.50,81.25
1076.00,81.58
1075.50,81.89
1075.00,82.19
1074.50,82.47
1074.00,82.71
1073.50,82.93
1073.00,83.12
1072.50,83.29
1072.00,83.44
1071.50,83.56
1071.00,83.68
1070.50,83.80
1070.00,83.93
1069.50,84.05
1069.00,84.16
1068.50,84.25
1068.00,84.33
1067.50,84.40
1067.00,84.47
1066.50,84.52
1066.00,84.57
1065.50,84.60
1065.00,84.61
1064.50,84.63
1064.00,84.65
1063.50,84.65
1063.00,84.64
1062.50,84.63
1062.00,84.63
1061.50,84.64
1061.00,84.66
1060.50,84.67
1060.00,84.67
1059.50,84.66
1059.00,84.65
1058.50,84.63
1058.00,84.61
1057.50,84.58
1057.00,84.55
1056.50,84.52
1056.00,84.47
1055.50,84.41
1055.00,84.33
1054.50,84.25
1054.00,84.17
1053.50,84.07
1053.00,83.96
1052.50,83.87
1052.00,83.79
1051.50,83.71
1051.00,83.62
1050.50,83.52
1050.00,83.41
1049.50,83.30
1049.00,83.20
1048.50,83.09
1048.00,82.99
1047.50,82.88
1047.00,82.75
1046.50,82.61
1046.00,82.45
1045.50,82.28
1045.00,82.13
1044.50,82.00
1044.00,81.90
1043.50,81.80
1043.00,81.71
1042.50,81.65
1042.00,81.64
1041.50,81.65
1041.00,81.68
1040.50,81.73
1040.00,81.78
1039.50,81.83
1039.00,81.88
1038.50,81.94
1038.00,81.99
1037.50,82.03
1037.00,82.05
1036.50,82.08
1036.00,82.10
1035.50,82.10
1035.00,82.03
1034.50,81.87
1034.00,81.61
1033.50,81.19
1033.00,80.56
1032.50,79.64
1032.00,78.43
1031.50,77.02
1031.00,75.68
1030.50,74.74
1030.00,74.46
1029.50,74.91
1029.00,75.89
1028.50,77.15
1028.00,78.39
1027.50,79.48
1027.00,80.34
1026.50,81.02
1026.00,81.57
1025.50,82.01
1025.00,82.36
1024.50,82.62
1024.00,82.80
1023.50,82.91
1023.00,83.00
1022.50,83.10
1022.00,83.25
1021.50,83.44
1021.00,83.64
1020.50,83.82
1020.00,83.95
1019.50,84.04
1019.00,84.12
1018.50,84.18
1018.00,84.24
1017.50,84.29
1017.00,84.36
1016.50,84.43
1016.00,84.49
1015.50,84.53
1015.00,84.55
1014.50,84.56
1014.00,84.57
1013.50,84.56
1013.00,84.55
1012.50,84.55
1012.00,84.54
1011.50,84.53
1011.00,84.52
1010.50,84.54
1010.00,84.57
1009.50,84.60
1009.00,84.61
1008.50,84.60
1008.00,84.57
1007.50,84.55
1007.00,84.52
1006.50,84.48
1006.00,84.42
1005.50,84.36
1005.00,84.32
1004.50,84.30
1004.00,84.28
1003.50,84.25
1003.00,84.21
1002.50,84.16
1002.00,84.14
1001.50,84.15
1001.00,84.18
1000.50,84.22
1000.00,84.24
999.50,84.25
999.00,84.24
998.50,84.21
998.00,84.18
997.50,84.15
997.00,84.13
996.50,84.14
996.00,84.17
995.50,84.19
995.00,84.21
994.50,84.21
994.00,84.19
993.50,84.15
993.00,84.11
992.50,84.07
992.00,84.05
991.50,84.03
991.00,84.01
990.50,83.98
990.00,83.93
989.50,83.88
989.00,83.82
988.50,83.78
988.00,83.74
987.50,83.73
987.00,83.72
986.50,83.70
986.00,83.67
985.50,83.64
985.00,83.62
984.50,83.61
984.00,83.60
983.50,83.60
983.00,83.60
982.50,83.61
982.00,83.63
981.50,83.66
981.00,83.69
980.50,83.73
980.00,83.78
979.50,83.82
979.00,83.87
978.50,83.90
978.00,83.92
977.50,83.94
977.00,83.97
976.50,83.99
976.00,84.02
975.50,84.06
975.00,84.12
974.50,84.17
974.00,84.21
973.50,84.24
973.00,84.28
972.50,84.31
972.00,84.34
971.50,84.33
971.00,84.31
970.50,84.30
970.00,84.29
969.50,84.28
969.00,84.28
968.50,84.27
968.00,84.28
967.50,84.29
967.00,84.31
966.50,84.33
966.00,84.35
965.50,84.37
965.00,84.37
964.50,84.37
964.00,84.37
963.50,84.37
963.00,84.39
962.50,84.40
962.00,84.41
961.50,84.41
961.00,84.40
960.50,84.41
960.00,84.43
959.50,84.46
959.00,84.47
958.50,84.47
958.00,84.46
957.50,84.48
957.00,84.53
956.50,84.58
956.00,84.61
955.50,84.59
955.00,84.55
954.50,84.52
954.00,84.52
953.50,84.54
953.00,84.56
952.50,84.58
952.00,84.59
951.50,84.58
951.00,84.57
950.50,84.57
950.00,84.56
949.50,84.57
949.00,84.57
948.50,84.57
948.00,84.58
947.50,84.59
947.00,84.60
946.50,84.59
946.00,84.57
945.50,84.56
945.00,84.57
944.50,84.60
944.00,84.64
943.50,84.68
943.00,84.71
942.50,84.73
942.00,84.73
941.50,84.73
941.00,84.73
940.50,84.73
940.00,84.73
939.50,84.74
939.00,84.74
938.50,84.72
938.00,84.69
937.50,84.66
937.00,84.66
936.50,84.70
936.00,84.75
935.50,84.78
935.00,84.78
934.50,84.77
934.00,84.76
933.50,84.74
933.00,84.72
932.50,84.70
932.00,84.68
931.50,84.67
931.00,84.67
930.50,84.66
930.00,84.65
929.50,84.63
929.00,84.61
928.50,84.60
928.00,84.62
927.50,84.65
927.00,84.68
926.50,84.69
926.00,84.69
925.50,84.71
925.00,84.74
924.50,84.78
924.00,84.81
923.50,84.83
923.00,84.84
922.50,84.87
922.00,84.88
921.50,84.88
921.00,84.86
920.50,84.83
920.00,84.81
919.50,84.80
919.00,84.80
918.50,84.80
918.00,84.78
917.50,84.75
917.00,84.73
916.50,84.75
916.00,84.77
915.50,84.77
915.00,84.73
914.50,84.67
914.00,84.63
913.50,84.63
913.00,84.66
912.50,84.69
912.00,84.71
911.50,84.70
911.00,84.67
910.50,84.64
910.00,84.63
909.50,84.62
909.00,84.63
908.50,84.64
908.00,84.66
907.50,84.68
907.00,84.68
906.50,84.68
906.00,84.66
905.50,84.63
905.00,84.56
904.50,84.49
904.00,84.43
903.50,84.38
903.00,84.32
902.50,84.26
902.00,84.20
901.50,84.13
901.00,84.05
900.50,83.94
900.00,83.82
899.50,83.66
899.00,83.47
898.50,83.26
898.00,83.05
897.50,82.85
897.00,82.69
896.50,82.54
896.00,82.43
895.50,82.38
895.00,82.40
894.50,82.50
894.00,82.65
893.50,82.81
893.00,82.97
892.50,83.14
892.00,83.29
891.50,83.42
891.00,83.53
890.50,83.66
890.00,83.80
889.50,83.94
889.00,84.04
888.50,84.09
888.00,84.11
887.50,84.13
887.00,84.16
886.50,84.20
886.00,84.24
885.50,84.28
885.00,84.33
884.50,84.41
884.00,84.50
883.50,84.59
883.00,84.63
882.50,84.63
882.00,84.61
881.50,84.58
881.00,84.57
880.50,84.56
880.00,84.56
879.50,84.57
879.00,84.57
878.50,84.55
878.00,84.50
877.50,84.43
877.00,84.37
876.50,84.36
876.00,84.39
875.50,84.42
875.00,84.44
874.50,84.44
874.00,84.43
873.50,84.42
873.00,84.42
872.50,84.41
872.00,84.41
871.50,84.41
871.00,84.42
870.50,84.43
870.00,84.45
869.50,84.45
869.00,84.44
868.50,84.45
868.00,84.47
867.50,84.48
867.00,84.48
866.50,84.47
866.00,84.46
865.50,84.47
865.00,84.47
864.50,84.48
864.00,84.49
863.50,84.48
863.00,84.47
862.50,84.46
862.00,84.45
861.50,84.45
861.00,84.47
860.50,84.51
860.00,84.54
859.50,84.56
859.00,84.55
858.50,84.52
858.00,84.49
857.50,84.46
857.00,84.46
856.50,84.47
856.00,84.47
855.50,84.46
855.00,84.43
854.50,84.40
854.00,84.35
853.50,84.25
853.00,84.15
852.50,84.10
852.00,84.10
851.50,84.13
851.00,84.14
850.50,84.13
850.00,84.13
849.50,84.15
849.00,84.19
848.50,84.20
848.00,84.16
847.50,84.09
847.00,84.00
846.50,83.93
846.00,83.88
845.50,83.84
845.00,83.81
844.50,83.78
844.00,83.75
843.50,83.71
843.00,83.67
842.50,83.65
842.00,83.65
841.50,83.67
841.00,83.69
840.50,83.71
840.00,83.74
839.50,83.75
839.00,83.75
838.50,83.75
838.00,83.76
837.50,83.78
837.00,83.81
836.50,83.83
836.00,83.84
835.50,83.86
835.00,83.88
834.50,83.90
834.00,83.90
833.50,83.89
833.00,83.92
832.50,83.99
832.00,84.08
831.50,84.14
831.00,84.15
830.50,84.15
830.00,84.18
829.50,84.24
829.00,84.32
828.50,84.39
828.00,84.41
827.50,84.39
827.00,84.36
826.50,84.34
826.00,84.35
825.50,84.35
825.00,84.30
824.50,84.24
824.00,84.18
823.50,84.16
823.00,84.18
822.50,84.23
822.00,84.27
821.50,84.28
821.00,84.25
820.50,84.23
820.00,84.21
819.50,84.19
819.00,84.18
818.50,84.16
818.00,84.13
817.50,84.09
817.00,84.07
816.50,84.08
816.00,84.10
815.50,84.08
815.00,84.03
814.50,83.97
814.00,83.94
813.50,83.93
813.00,83.94
812.50,83.95
812.00,83.96
811.50,83.97
811.00,83.96
810.50,83.93
810.00,83.92
809.50,83.92
809.00,83.93
808.50,83.92
808.00,83.91
807.50,83.91
807.00,83.93
806.50,83.97
806.00,84.01
805.50,84.03
805.00,84.02
804.50,83.97
804.00,83.94
803.50,83.94
803.00,84.00
802.50,84.08
802.00,84.13
801.50,84.12
801.00,84.07
800.50,84.00
800.00,83.96
799.50,83.95
799.00,83.98
798.50,84.03
798.00,84.07
797.50,84.07
797.00,84.06
796.50,84.06
796.00,84.08
795.50,84.11
795.00,84.12
794.50,84.10
794.00,84.08
793.50,84.06
793.00,84.03
792.50,83.98
792.00,83.92
791.50,83.87
791.00,83.83
790.50,83.81
790.00,83.78
789.50,83.74
789.00,83.66
788.50,83.55
788.00,83.39
787.50,83.18
787.00,82.92
786.50,82.67
786.00,82.50
785.50,82.45
785.00,82.49
784.50,82.59
784.00,82.72
783.50,82.86
783.00,83.01
782.50,83.17
782.00,83.33
781.50,83.47
781.00,83.58
780.50,83.64
780.00,83.65
779.50,83.62
779.00,83.59
778.50,83.60
778.00,83.64
777.50,83.68
777.00,83.69
776.50,83.71
776.00,83.73
775.50,83.78
775.00,83.82
774.50,83.85
774.00,83.86
773.50,83.83
773.00,83.79
772.50,83.74
772.00,83.73
771.50,83.74
771.00,83.75
770.50,83.75
770.00,83.75
769.50,83.77
769.00,83.78
768.50,83.78
768.00,83.77
767.50,83.76
767.00,83.73
766.50,83.69
766.00,83.65
765.50,83.62
765.00,83.60
764.50,83.57
764.00,83.56
763.50,83.56
763.00,83.56
762.50,83.50
762.00,83.39
761.50,83.29
761.00,83.26
760.50,83.29
760.00,83.35
759.50,83.40
759.00,83.41
758.50,83.41
758.00,83.41
757.50,83.39
757.00,83.33
756.50,83.25
756.00,83.15
755.50,83.06
755.00,82.97
754.50,82.88
754.00,82.77
753.50,82.65
753.00,82.52
752.50,82.39
752.00,82.24
751.50,82.07
751.00,81.91
750.50,81.74
750.00,81.60
749.50,81.48
749.00,81.36
748.50,81.24
748.00,81.11
747.50,80.97
747.00,80.80
746.50,80.62
746.00,80.46
745.50,80.32
745.00,80.17
744.50,79.96
744.00,79.69
743.50,79.37
743.00,79.02
742.50,78.62
742.00,78.17
741.50,77.68
741.00,77.17
740.50,76.62
740.00,75.97
739.50,75.24
739.00,74.44
738.50,73.59
738.00,72.64
737.50,71.52
737.00,70.24
736.50,68.80
736.00,67.23
735.50,65.53
735.00,63.71
734.50,61.77
734.00,59.73
733.50,57.59
733.00,55.36
732.50,53.10
732.00,50.83
731.50,48.56
731.00,46.29
730.50,44.07
730.00,41.94
729.50,39.96
729.00,38.20
728.50,36.76
728.00,35.70
727.50,35.09
727.00,34.98
726.50,35.43
726.00,36.44
725.50,37.92
725.00,39.76
724.50,41.84
724.00,44.08
723.50,46.39
723.00,48.72
722.50,51.01
722.00,53.18
721.50,55.22
721.00,57.14
720.50,58.97
720.00,60.65
719.50,62.16
719.00,63.50
718.50,64.70
718.00,65.78
717.50,66.75
717.00,67.67
716.50,68.54
716.00,69.34
715.50,70.03
715.00,70.60
714.50,71.12
714.00,71.60
713.50,72.10
713.00,72.62
712.50,73.15
712.00,73.65
711.50,74.08
711.00,74.46
710.50,74.79
710.00,75.04
709.50,75.21
709.00,75.35
708.50,75.48
708.00,75.57
707.50,75.59
707.00,75.55
706.50,75.46
706.00,75.33
705.50,75.15
705.00,74.92
704.50,74.62
704.00,74.21
703.50,73.66
703.00,73.02
702.50,72.33
702.00,71.62
701.50,70.91
701.00,70.20
700.50,69.44
700.00,68.51
699.50,67.30
699.00,65.77
698.50,63.89
698.00,61.60
697.50,58.82
697.00,55.56
696.50,51.98
696.00,48.39
695.50,45.15
695.00,42.67
694.50,41.30
694.00,41.15
693.50,42.05
693.00,43.75
692.50,45.99
692.00,48.52
691.50,51.12
691.00,53.62
690.50,56.00
690.00,58.29
689.50,60.49
689.00,62.53
688.50,64.33
688.00,65.84
687.50,67.09
687.00,68.17
686.50,69.18
686.00,70.10
685.50,70.87
685.00,71.43
684.50,71.80
684.00,72.09
683.50,72.38
683.00,72.74
682.50,73.17
682.00,73.56
681.50,73.83
681.00,73.98
680.50,74.09
680.00,74.17
679.50,74.20
679.00,74.17
678.50,74.18
678.00,74.29
677.50,74.45
677.00,74.58
676.50,74.71
676.00,74.88
675.50,75.09
675.00,75.32
674.50,75.57
674.00,75.85
673.50,76.14
673.00,76.38
672.50,76.58
672.00,76.78
671.50,77.00
671.00,77.24
670.50,77.46
670.00,77.59
669.50,77.62
669.00,77.57
668.50,77.75
668.00,78.32
667.50,78.66
667.00,78.64
666.50,78.58
666.00,78.58
665.50,78.64
665.00,78.68
664.50,78.70
664.00,78.74
663.50,78.78
663.00,78.81
662.50,78.83
662.00,78.87
661.50,78.96
661.00,79.12
660.50,79.33
660.00,79.56
659.50,79.74
659.00,79.83
658.50,79.86
658.00,79.90
657.50,79.95
657.00,79.95
656.50,79.90
656.00,79.83
655.50,79.81
655.00,79.81
654.50,79.78
654.00,79.73
653.50,79.72
653.00,79.79
652.50,79.93
652.00,80.09
651.50,80.20
651.00,80.27
650.50,80.25
650.00,80.18
